
20.000000,-1.312581,-1.277790,-4.165713,-0.152590,-15.304799,-7.660029
20.001000,-1.071794,-1.120165,-13.244831,-4.684520,-24.765393,-10.193027
20.002000,-0.908064,-0.982528,-21.622034,-7.751583,-34.332799,-11.978332
20.003000,-0.780652,-0.847944,-27.023728,-8.331426,-37.689784,-8.453498
20.004000,-0.648051,-0.701457,-27.389944,-9.185931,-38.086519,-11.947814
20.005000,-0.538491,-0.572366,-25.803006,-12.771801,-38.849470,-12.466621
20.006000,-0.449226,-0.448615,-19.501030,-10.940719,-35.446708,-13.107500
20.007000,-0.339361,-0.317235,-14.099336,-9.475853,-33.081559,-14.801251
20.008000,-0.270237,-0.206760,-9.842069,-11.047532,-33.569848,-17.257954
20.009000,-0.200809,-0.109712,-7.370108,-7.186999,-30.167086,-17.212177
20.010000,-0.115511,-0.020752,-5.752651,-5.416953,-27.038987,-16.739147
20.011000,-0.047456,0.046998,-8.667124,-5.661097,-29.053178,-16.861219
20.012000,-0.001068,0.075990,-9.521630,-6.729229,-28.030823,-14.496071
20.013000,0.018616,0.079500,-8.499275,-7.888914,-30.029755,-13.534752
20.014000,-0.022736,0.057679,-14.496071,-12.207218,-33.951324,-14.404517
20.015000,-0.066529,0.019074,-20.614939,-15.930419,-35.156786,-12.405585
20.016000,-0.077211,-0.019379,-21.911955,-15.854124,-36.362249,-10.589761
20.017000,-0.092012,-0.061036,-27.267872,-16.540780,-39.642939,-12.741283
20.018000,-0.107271,-0.105287,-29.922942,-15.716793,-39.658198,-13.839933
20.019000,-0.090181,-0.145571,-29.877165,-15.594720,-38.040742,-15.838865
20.020000,-0.092164,-0.174105,-30.258640,-16.861219,-38.178073,-19.150072
20.021000,-0.133211,-0.207370,-28.732738,-16.083009,-33.371481,-16.571298
20.022000,-0.157015,-0.216220,-25.238422,-15.533684,-28.992142,-16.662852
20.023000,-0.155032,-0.226139,-23.407340,-16.083009,-29.129473,-20.309758
20.024000,-0.153964,-0.231785,-19.790951,-13.412680,-26.733806,-18.799115
20.025000,-0.144656,-0.214694,-17.975128,-13.366903,-26.672770,-21.866178
20.026000,-0.115816,-0.182956,-17.776761,-17.318990,-25.482567,-22.262913
20.027000,-0.092775,-0.149233,-18.066682,-16.632334,-25.177386,-22.842756
20.028000,-0.062409,-0.107271,-16.449226,-15.671015,-25.848783,-23.819333
20.029000,-0.010376,-0.065461,-15.930419,-14.785992,-30.930037,-22.507057
20.030000,0.010529,-0.042573,-19.165332,-14.023041,-29.678798,-20.920119
20.031000,0.043946,-0.018769,-21.332113,-14.404517,-28.000305,-17.563134
20.032000,0.054932,-0.006561,-21.499962,-17.349508,-30.945296,-22.751202
20.033000,0.031128,-0.016022,-22.613870,-21.149004,-33.127337,-23.605707
20.034000,0.026856,-0.019837,-23.849851,-20.553902,-33.798734,-24.841688
20.035000,0.043488,-0.012665,-25.986114,-21.408408,-38.300145,-26.840620
20.036000,0.033722,-0.023499,-26.993210,-19.470512,-38.544289,-26.398108
20.037000,0.033417,-0.033112,-26.153964,-17.822538,-36.072328,-26.459144
20.038000,0.051881,-0.043793,-27.283131,-18.692302,-38.193332,-26.855879
20.039000,0.077211,-0.054627,-27.023728,-21.637293,-38.757916,-26.535439
20.040000,0.067903,-0.068666,-25.284199,-22.247654,-37.705043,-25.680934
20.041000,0.061036,-0.073243,-24.521248,-23.590448,-34.988937,-24.872206
20.042000,0.056611,-0.076143,-23.834592,-26.169223,-31.891356,-24.612802
20.043000,0.074006,-0.082399,-20.279240,-23.285267,-28.809033,-24.597543
20.044000,0.088045,-0.071717,-20.309758,-19.516289,-30.792706,-26.474403
20.045000,0.090639,-0.059510,-21.286336,-18.585489,-33.844511,-28.320745
20.046000,0.094148,-0.047761,-19.607843,-17.792020,-33.295186,-29.571984
20.047000,0.118868,-0.021515,-21.087968,-18.554971,-36.575875,-28.320745
20.048000,0.127260,-0.008392,-23.254749,-23.376822,-38.117037,-32.822156
20.049000,0.128328,0.001526,-21.850919,-24.582284,-36.133364,-34.164950
20.050000,0.137636,0.027619,-22.125582,-25.635157,-35.370413,-35.202564
20.051000,0.165866,0.039673,-23.208972,-27.618830,-37.003128,-37.048905
20.052000,0.189517,0.049134,-21.728847,-27.206836,-37.476158,-36.606394
20.053000,0.216220,0.060578,-21.988251,-27.328908,-38.223850,-37.338827
20.054000,0.234989,0.066987,-25.223163,-27.038987,-38.941024,-38.956283
20.055000,0.255283,0.066835,-25.238422,-27.389944,-36.499580,-38.712139
20.056000,0.252842,0.068818,-23.773556,-29.068437,-32.013428,-37.598230
20.057000,0.223087,0.060731,-21.728847,-32.059205,-33.646143,-37.735561
20.058000,0.173495,0.041047,-17.456321,-30.472267,-31.631952,-40.329595
20.059000,0.184787,0.040894,-14.984360,-28.854810,-28.976883,-40.360113
20.060000,0.216983,0.051270,-12.191958,-30.533303,-29.968719,-38.529030
20.061000,0.218509,0.054627,-9.246967,-28.213931,-27.756161,-35.202564
20.062000,0.231632,0.062715,-5.355917,-25.299458,-24.567025,-36.499580
20.063000,0.247501,0.065461,-1.678492,-25.207904,-23.208972,-38.498512
20.064000,0.268864,0.066224,1.709010,-26.749065,-22.034028,-40.024414
20.065000,0.293431,0.082399,6.683452,-26.504921,-22.873274,-42.221714
20.066000,0.310063,0.097810,9.048600,-27.252613,-26.092927,-43.610285
20.067000,0.299992,0.102541,8.056764,-25.513085,-29.617762,-41.519799
20.068000,0.298314,0.116732,9.140154,-21.377890,-26.138705,-42.023346
20.069000,0.320134,0.132601,11.123827,-25.299458,-26.138705,-44.571603
20.070000,0.334020,0.136873,11.062791,-26.749065,-25.741970,-41.626612
20.071000,0.359350,0.154574,13.000687,-23.605707,-25.070573,-39.581903
20.072000,0.408026,0.174105,13.260090,-24.979019,-26.047150,-42.633707
20.073000,0.412299,0.179141,13.122759,-27.985046,-26.565957,-43.106737
20.074000,0.396582,0.179141,15.304799,-25.909819,-26.718547,-44.754711
20.075000,0.383307,0.182498,16.510262,-23.331044,-26.779583,-46.387427
20.076000,0.388037,0.185855,17.059586,-24.231327,-25.024796,-46.433204
20.077000,0.415045,0.195163,22.827497,-24.078737,-26.672770,-46.478981
20.078000,0.447395,0.209506,20.187686,-24.673838,-30.975814,-44.815747
20.079000,0.461891,0.215763,13.565270,-27.222095,-31.250477,-48.035401
20.080000,0.472572,0.215763,13.504234,-25.406271,-31.250477,-44.174868
20.081000,0.490425,0.222629,17.517357,-25.925078,-33.127337,-43.549248
20.082000,0.478828,0.225681,17.807279,-25.513085,-33.890288,-43.671321
20.083000,0.483101,0.235904,22.430762,-25.436790,-31.601434,-41.794461
20.084000,0.507057,0.248569,26.199741,-24.872206,-31.982910,-41.428244
20.085000,0.538186,0.268254,27.817197,-25.192645,-31.387808,-42.511635
20.086000,0.580301,0.282292,28.885328,-24.368658,-27.939269,-43.091478
20.087000,0.603189,0.301061,30.777447,-23.636225,-29.373617,-45.807584
20.088000,0.610971,0.309911,32.425422,-23.819333,-30.746929,-46.051728
20.089000,0.593423,0.303197,36.911574,-22.934310,-28.961624,-39.124132
20.090000,0.591745,0.308843,39.581903,-23.682002,-26.764324,-37.415122
20.091000,0.601968,0.320134,36.636912,-23.712520,-29.587243,-35.797665
20.092000,0.608835,0.328527,36.301213,-22.369726,-28.488594,-35.706111
20.093000,0.644388,0.353704,34.409094,-18.982223,-25.833524,-35.370413
20.094000,0.681773,0.372015,30.228122,-18.341344,-26.398108,-37.399863
20.095000,0.692607,0.382544,30.258640,-16.449226,-25.314717,-34.622721
20.096000,0.718547,0.403143,30.624857,-14.511330,-26.840620,-36.591135
20.097000,0.720378,0.408179,30.807965,-15.823606,-27.603571,-36.804761
20.098000,0.725261,0.409094,29.007401,-11.200122,-28.122377,-36.102846
20.099000,0.754253,0.425116,30.334936,-10.162509,-30.457008,-35.873960
20.100000,0.777142,0.436866,31.418326,-10.971237,-31.433585,-37.094682
20.101000,0.770581,0.435492,32.944228,-12.787060,-30.472267,-35.538262
20.102000,0.771191,0.450446,33.539330,-12.497139,-30.670634,-37.369345
20.103000,0.791485,0.467231,32.196536,-12.970169,-28.900587,-38.818952
20.104000,0.778058,0.472572,31.280995,-15.701534,-24.780652,-37.064164
20.105000,0.793011,0.488746,30.975814,-14.496071,-24.780652,-40.314336
20.106000,0.822614,0.504311,29.510948,-16.510262,-27.145800,-45.563439
20.107000,0.830396,0.506752,28.519112,-14.740215,-26.977951,-50.583658
20.108000,0.845808,0.517586,32.303349,-10.605020,-23.697261,-52.216373
20.109000,0.849928,0.529030,33.676661,-9.506371,-22.705425,-53.177691
20.110000,0.831006,0.520943,34.210727,-10.147250,-23.712520,-54.016938
20.111000,0.830396,0.531472,32.837415,-7.385367,-22.049287,-53.681239
20.112000,0.852216,0.555734,31.754025,-8.896010,-21.530480,-52.948806
20.113000,0.897230,0.580758,30.853742,-9.704738,-19.272145,-52.094301
20.114000,0.957351,0.612345,31.906615,-9.170672,-17.929351,-54.505226
20.115000,0.993973,0.633097,32.425422,-8.651865,-22.049287,-55.161364
20.116000,0.999313,0.641642,33.463035,-8.941787,-21.240558,-52.201114
20.117000,0.997940,0.648051,36.423285,-7.034409,-17.898833,-51.270314
20.118000,0.999161,0.656748,37.415122,-6.637675,-19.439994,-53.223468
20.119000,1.010758,0.659953,34.500649,-7.003891,-19.485771,-57.389181
20.120000,1.020066,0.678874,36.606394,-6.088350,-15.777829,-55.893797
20.121000,1.051347,0.703441,39.230945,-7.080186,-14.221408,-54.642557
20.122000,1.080491,0.720378,39.307240,-7.156481,-12.970169,-52.567330
20.123000,1.122606,0.746777,42.313268,-5.508507,-10.055695,-51.483940
20.124000,1.156329,0.760967,44.083314,-2.868696,-8.041505,-51.285573
20.125000,1.152972,0.765545,45.426108,-1.327535,-7.614252,-51.071946
20.126000,1.167010,0.783093,46.845197,-0.991836,-3.616388,-48.706798
20.127000,1.218891,0.810864,48.447395,-1.342794,-1.876860,-50.614176
20.128000,1.239185,0.821698,50.659953,-2.594034,-1.388571,-54.413672
20.129000,1.236591,0.827039,50.827802,0.762951,0.671397,-51.194018
20.130000,1.275196,0.849928,52.155337,1.922637,0.793469,-51.422904
20.131000,1.301595,0.862287,51.087205,0.427253,0.732433,-47.058824
20.132000,1.341268,0.890669,52.796216,3.372244,1.052873,-45.395590
20.133000,1.380941,0.926070,56.565194,5.493248,-0.457771,-47.852293
20.134000,1.395743,0.939498,56.046387,5.203326,-0.122072,-49.057755
20.135000,1.389487,0.948959,58.045319,6.454566,5.477989,-47.287709
20.136000,1.415579,0.971389,62.149996,7.812619,8.590829,-46.814679
20.137000,1.448997,0.992142,62.455177,6.057832,8.285649,-45.914397
20.138000,1.462272,1.006332,60.120546,5.767910,9.719997,-45.746548
20.139000,1.491722,1.028611,60.944533,7.202258,8.377203,-46.250095
20.140000,1.518730,1.049516,61.829557,7.980468,7.141222,-49.073014
20.141000,1.541161,1.060349,64.744030,6.439307,7.110704,-45.609216
20.142000,1.591058,1.089036,66.575113,7.141222,7.827878,-44.464790
20.143000,1.630884,1.116197,66.544594,7.888914,11.520562,-46.509499
20.144000,1.643397,1.128862,70.618753,8.300908,14.297704,-44.403754
20.145000,1.638514,1.145800,73.014420,9.872587,17.654688,-44.449531
20.146000,1.644617,1.153887,71.015488,8.834974,15.899901,-44.983597
20.147000,1.647822,1.165484,69.031815,10.727092,14.908064,-45.914397
20.148000,1.695125,1.184405,68.070497,12.344549,17.502098,-46.540017
20.149000,1.763333,1.206683,66.315709,11.795224,15.472648,-46.173800
20.150000,1.787900,1.221942,64.255741,12.603952,15.014878,-42.114900
20.151000,1.807126,1.240406,66.498817,12.588693,17.792020,-39.627680
20.152000,1.840238,1.262226,68.329900,13.183795,19.653620,-41.977569
20.153000,1.826658,1.258259,69.535363,14.312963,20.660716,-41.931792
20.154000,1.827573,1.268940,71.534295,17.212177,19.974060,-42.435340
20.155000,1.881132,1.299611,73.380636,18.905928,19.913024,-44.937819
20.156000,1.918059,1.311208,77.851530,19.104295,24.521248,-41.397726
20.157000,1.951171,1.335164,82.520790,21.454185,30.716411,-38.452735
20.158000,1.978027,1.345998,82.413977,19.485771,30.243381,-38.696880
20.159000,1.976349,1.347829,81.712062,17.807279,32.333867,-39.841306
20.160000,1.963226,1.352865,83.115892,21.972992,32.166018,-37.460899
20.161000,1.984131,1.366903,83.497368,22.186618,30.395972,-37.003128
20.162000,1.980316,1.363699,86.747539,22.537575,29.922942,-39.688716
20.163000,2.012970,1.379416,91.767758,22.644388,34.241245,-36.575875
20.164000,2.065461,1.402457,98.344396,22.476539,37.964446,-35.355154
20.165000,2.088655,1.414664,96.101320,20.019837,34.882124,-35.049973
20.166000,2.088655,1.414664,95.811398,23.285267,34.775311,-34.882124
20.167000,2.120241,1.440604,95.643549,24.170291,32.013428,-38.788434
20.168000,2.150912,1.460594,96.086061,21.133745,32.028687,-38.147555
20.169000,2.158236,1.465324,96.025025,21.026932,35.645075,-36.530098
20.170000,2.150912,1.471580,93.629358,21.606775,37.567712,-35.736629
20.171000,2.146181,1.481193,90.867475,20.859083,38.223850,-35.904479
20.172000,2.153201,1.483177,91.645686,21.698329,40.482185,-36.072328
20.173000,2.209812,1.497063,91.554131,22.903792,41.138323,-37.582971
20.174000,2.212406,1.499504,86.930648,24.155032,38.620584,-37.720302
20.175000,2.179446,1.492790,84.107729,24.246586,37.598230,-34.653239
20.176000,2.185397,1.498283,81.834134,23.514153,37.994965,-34.546426
20.177000,2.195621,1.508049,78.263523,20.996414,35.965515,-34.454871
20.178000,2.201419,1.506371,75.135424,20.798047,38.056001,-32.410163
20.179000,2.230411,1.514305,76.646067,23.208972,37.644007,-32.730602
20.180000,2.245975,1.514153,73.502708,22.827497,33.936065,-31.219959
20.181000,2.229648,1.501488,72.449836,23.651484,37.216754,-27.832456
20.182000,2.218204,1.502098,70.618753,26.733806,37.659266,-28.534371
20.183000,2.211337,1.512779,67.185473,29.022660,38.040742,-30.319677
20.184000,2.203403,1.501488,69.108110,31.021592,39.673457,-30.136568
20.185000,2.186923,1.494011,69.962615,31.097887,41.870756,-29.785611
20.186000,2.175784,1.500420,67.261769,31.906615,38.864729,-29.571984
20.187000,2.172274,1.498436,63.889525,32.074464,37.705043,-29.663539
20.188000,2.162661,1.490959,60.090028,32.150759,38.345922,-30.136568
20.189000,2.157626,1.473716,57.709621,31.158923,38.056001,-29.892424
20.190000,2.102083,1.445640,57.679103,33.234150,39.322499,-28.595407
20.191000,2.086671,1.426566,58.930343,35.675593,39.124132,-29.053178
20.192000,2.072786,1.412680,59.678035,32.623789,37.491417,-28.442817
20.193000,2.032197,1.389792,57.709621,32.410163,35.614557,-27.969787
20.194000,1.979248,1.367514,53.910124,34.134432,34.958419,-31.006332
20.195000,1.918669,1.335775,50.110628,34.729534,36.179141,-32.547494
20.196000,1.855802,1.305562,46.250095,35.034714,37.537194,-34.241245
20.197000,1.837644,1.284199,47.196155,35.492485,39.810788,-35.477226
20.198000,1.836118,1.267109,44.998856,34.973678,36.240177,-36.194400
20.199000,1.813230,1.239490,45.044633,35.736629,34.164950,-37.476158
20.200000,1.774929,1.201038,45.548180,34.485389,28.854810,-38.849470
20.201000,1.724117,1.164111,45.349813,31.250477,26.749065,-40.772107
20.202000,1.630579,1.116197,44.632639,27.664607,25.574121,-41.626612
20.203000,1.532616,1.064164,42.984665,28.366522,27.237354,-41.947051
20.204000,1.479820,1.025559,42.130159,28.366522,28.198672,-43.747616
20.205000,1.405661,0.979019,39.688716,25.696193,28.549630,-45.838102
20.206000,1.347219,0.932174,38.391699,26.092927,30.380713,-45.136187
20.207000,1.308614,0.902419,37.460899,27.359426,26.977951,-48.844129
20.208000,1.264210,0.864118,36.987869,24.322881,23.727779,-53.116655
20.209000,1.211872,0.816663,37.949187,26.153964,25.925078,-54.032197
20.210000,1.149310,0.766766,35.889220,27.878233,27.283131,-52.719921
20.211000,1.079271,0.715190,32.623789,24.765393,24.048219,-51.819638
20.212000,1.004807,0.657816,34.210727,25.009537,23.498894,-49.698634
20.213000,0.937362,0.610971,32.120241,24.170291,20.065614,-50.110628
20.214000,0.861067,0.563821,24.948501,20.370794,17.166400,-52.826734
20.215000,0.781109,0.511482,19.607843,18.341344,20.614939,-54.093233
20.216000,0.710002,0.449836,19.638361,18.600748,21.988251,-52.582589
20.217000,0.626230,0.383459,19.317922,17.212177,20.202945,-55.161364
20.218000,0.536660,0.327916,20.492866,17.273213,20.355535,-55.817502
20.219000,0.498817,0.289616,19.348440,17.410544,17.898833,-57.694362
20.220000,0.454261,0.249638,13.931487,13.229572,10.070954,-60.196841
20.221000,0.365454,0.207523,12.817578,10.650797,9.369039,-59.449149
20.222000,0.294194,0.164034,11.886778,11.429007,6.805524,-60.120546
20.223000,0.249027,0.118563,6.851301,9.597925,4.867628,-62.363622
20.224000,0.191806,0.066377,2.883955,8.987564,5.127031,-61.646448
20.225000,0.152285,0.024414,2.655070,8.361944,0.076295,-63.233387
20.226000,0.102083,-0.018311,-2.731365,4.898146,-7.141222,-67.505913
20.227000,0.001678,-0.075685,-8.285649,3.448539,-9.689479,-67.109178
20.228000,-0.073396,-0.118868,-8.789197,4.592966,-12.390326,-67.460136
20.229000,-0.108186,-0.155337,-12.939651,3.509575,-13.733120,-68.726635
20.230000,-0.172427,-0.200351,-15.838865,3.768978,-11.581598,-70.115206
20.231000,-0.213321,-0.229038,-18.204013,3.799496,-10.498207,-71.381704
20.232000,-0.230259,-0.259251,-24.521248,3.265431,-15.045396,-71.656367
20.233000,-0.272068,-0.299992,-26.565957,2.563516,-16.342412,-66.376745
20.234000,-0.312810,-0.327764,-32.104982,-0.320439,-18.829633,-66.971847
20.235000,-0.337987,-0.346532,-36.392767,-2.853437,-21.560998,-70.237278
20.236000,-0.363622,-0.382238,-42.023346,-5.676356,-24.017700,-72.816052
20.237000,-0.406348,-0.414282,-44.312200,-5.249104,-24.780652,-72.297246
20.238000,-0.446937,-0.432441,-45.990692,-7.385367,-28.244450,-72.037842
20.239000,-0.478065,-0.455787,-49.134051,-8.041505,-30.090791,-70.664530
20.240000,-0.497292,-0.464790,-51.407645,-6.500343,-30.472267,-72.861830
20.241000,-0.485542,-0.475471,-51.163500,-7.705806,-29.800870,-74.876020
20.242000,-0.506905,-0.499886,-50.873579,-9.124895,-29.678798,-76.218814
20.243000,-0.547036,-0.529030,-53.452354,-8.072023,-29.083696,-75.883116
20.244000,-0.593118,-0.553445,-54.734112,-9.292744,-27.908751,-76.569772
20.245000,-0.627909,-0.579385,-56.000610,-10.620279,-27.862974,-77.027543
20.246000,-0.632639,-0.597238,-58.472572,-8.148318,-30.594339,-78.614481
20.247000,-0.631876,-0.607919,-63.080797,-8.789197,-34.973678,-79.331655
20.248000,-0.650645,-0.624247,-64.820325,-10.605020,-36.179141,-84.443427
20.249000,-0.671397,-0.641794,-66.880293,-9.613184,-33.859770,-86.289769
20.250000,-0.680552,-0.647288,-66.987106,-8.392462,-33.325704,-88.761730
20.251000,-0.711986,-0.662852,-73.228046,-9.765774,-31.769284,-88.349737
20.252000,-0.733959,-0.672465,-77.271687,-7.614252,-28.747997,-82.948043
20.253000,-0.713054,-0.663615,-79.423209,-7.324331,-33.798734,-81.071183
20.254000,-0.715801,-0.675364,-83.604181,-9.521630,-39.673457,-82.948043
20.255000,-0.747082,-0.700389,-86.625467,-6.851301,-38.864729,-84.061952
20.256000,-0.772564,-0.707103,-88.700694,-5.813687,-36.560616,-86.930648
20.257000,-0.797131,-0.716258,-89.784085,-5.844205,-35.721370,-87.296864
20.258000,-0.797131,-0.721904,-92.713817,-3.448539,-37.277790,-85.557336
20.259000,-0.778973,-0.723888,-94.956893,-3.265431,-36.285954,-86.930648
20.260000,-0.777295,-0.729839,-94.544900,-5.737392,-38.605325,-86.472877
20.261000,-0.794842,-0.735637,-94.499123,-5.676356,-40.192264,-85.664149
20.262000,-0.808118,-0.735180,-94.499123,-5.050736,-41.962310,-85.709926
20.263000,-0.810407,-0.741894,-97.856107,-9.445335,-45.243000,-89.784085
20.264000,-0.831922,-0.762341,-98.939498,-11.413748,-45.944915,-89.738308
20.265000,-0.822919,-0.762341,-99.763485,-14.709697,-44.602121,-87.754635
20.266000,-0.811170,-0.754406,-103.044175,-16.708629,-46.936751,-89.280537
20.267000,-0.807050,-0.744945,-105.989166,-17.807279,-47.562371,-88.578622
20.268000,-0.800793,-0.739910,-105.226215,-16.159304,-47.425040,-89.097429
20.269000,-0.809644,-0.734417,-108.186465,-17.242695,-49.454490,-91.783017
20.270000,-0.842298,-0.746929,-110.948348,-17.242695,-47.211414,-92.072938
20.271000,-0.828565,-0.748302,-109.849699,-15.854124,-46.128023,-93.064775
20.272000,-0.807050,-0.748455,-110.963607,-15.487907,-47.974365,-95.933471
20.273000,-0.823072,-0.754864,-111.589227,-16.647593,-48.859388,-95.613031
20.274000,-0.827192,-0.745708,-110.505837,-15.045396,-47.241932,-94.254978
20.275000,-0.803235,-0.738537,-111.009384,-16.327153,-47.241932,-98.329137
20.276000,-0.796979,-0.752270,-111.238270,-17.517357,-45.777066,-98.435950
20.277000,-0.798962,-0.757916,-105.378805,-15.671015,-42.008087,-97.123674
20.278000,-0.819409,-0.755169,-104.539559,-14.511330,-44.220645,-98.970016
20.279000,-0.830701,-0.756847,-108.171206,-15.350576,-46.372168,-102.296483
20.280000,-0.801099,-0.742199,-111.039902,-17.685206,-46.250095,-104.188602
20.281000,-0.776837,-0.725261,-111.589227,-18.692302,-47.348745,-103.715572
20.282000,-0.787671,-0.721294,-116.212711,-17.929351,-47.837034,-101.533532
20.283000,-0.785382,-0.719615,-119.310292,-15.594720,-46.585794,-102.723735
20.284000,-0.771191,-0.713512,-119.096666,-15.030137,-44.769970,-104.631113
20.285000,-0.774090,-0.710460,-118.364233,-15.869383,-47.364004,-105.867094
20.286000,-0.750744,-0.702220,-116.105898,-14.541848,-47.684443,-102.189670
20.287000,-0.730755,-0.700237,-114.091707,-14.618143,-49.652857,-100.785840
20.288000,-0.721447,-0.701457,-114.442664,-15.732052,-49.607080,-102.586404
20.289000,-0.733959,-0.695964,-115.022507,-13.916228,-46.494240,-101.915007
20.290000,-0.742657,-0.695201,-113.969635,-14.557107,-47.180896,-101.777676
20.291000,-0.768444,-0.697948,-116.151675,-17.166400,-50.537881,-103.196765
20.292000,-0.782025,-0.689250,-119.966430,-15.533684,-51.361868,-102.021820
20.293000,-0.772259,-0.681010,-122.804608,-16.311894,-54.200046,-103.822385
20.294000,-0.786755,-0.685740,-126.848249,-17.257954,-55.542840,-103.685054
20.295000,-0.791485,-0.688182,-128.236820,-17.288472,-55.191882,-101.655604
20.296000,-0.743267,-0.682994,-125.520714,-16.021973,-53.742275,-100.083925
20.297000,-0.733654,-0.688487,-123.476005,-18.554971,-53.513390,-100.236515
20.298000,-0.782330,-0.707103,-121.431296,-19.272145,-52.445258,-98.283360
20.299000,-0.800183,-0.706950,-116.914626,-17.349508,-55.588617,-99.427787
20.300000,-0.802014,-0.699168,-119.356069,-19.439994,-60.700389,-100.862135
20.301000,-0.794690,-0.693370,-118.181125,-20.355535,-60.532540,-98.329137
20.302000,-0.769970,-0.674907,-114.671550,-19.531548,-57.953765,-99.061570
20.303000,-0.760357,-0.671550,-111.879149,-19.745174,-53.772793,-98.268101
20.304000,-0.761120,-0.680095,-107.698177,-17.761501,-47.226673,-95.399405
20.305000,-0.755932,-0.683452,-104.356451,-17.273213,-44.602121,-93.720912
20.306000,-0.752728,-0.684520,-103.807126,-18.844892,-45.181964,-95.078965
20.307000,-0.769818,-0.686656,-104.432746,-20.096132,-44.266423,-96.452277
20.308000,-0.772869,-0.682231,-103.730831,-19.104295,-43.183032,-96.086061
20.309000,-0.771649,-0.670787,-104.478523,-19.775692,-44.937819,-97.291524
20.310000,-0.784924,-0.682536,-105.027848,-20.294499,-43.503471,-92.286564
20.311000,-0.801709,-0.690776,-105.607691,-18.570230,-40.039673,-91.233692
20.312000,-0.814984,-0.685283,-105.302510,-17.578393,-40.543221,-89.890898
20.313000,-0.822156,-0.681926,-101.915007,-17.807279,-40.833143,-91.172656
20.314000,-0.792096,-0.662699,-101.991302,-17.441062,-41.123064,-91.172656
20.315000,-0.742962,-0.646983,-107.667659,-20.981155,-42.740520,-93.141070
20.316000,-0.726940,-0.646067,-109.559777,-21.423667,-42.786297,-90.959030
20.317000,-0.721904,-0.638743,-108.323796,-20.141909,-38.437476,-87.922484
20.318000,-0.712902,-0.635538,-110.017548,-21.469444,-41.000992,-88.929580
20.319000,-0.743267,-0.643320,-112.672618,-20.416571,-42.725261,-90.241855
20.320000,-0.757153,-0.640269,-114.152743,-19.287404,-44.739452,-90.394446
20.321000,-0.745251,-0.626688,-112.046998,-22.034028,-43.976501,-90.699626
20.322000,-0.730449,-0.619669,-111.619745,-24.505989,-44.571603,-91.432059
20.323000,-0.715648,-0.612497,-110.460060,-22.705425,-41.428244,-91.676204
20.324000,-0.712291,-0.612345,-110.276951,-21.957733,-41.886015,-94.071870
20.325000,-0.733806,-0.619211,-112.413214,-24.567025,-43.884947,-95.918212
20.326000,-0.738689,-0.611429,-114.183261,-22.293431,-45.227741,-95.185779
20.327000,-0.702831,-0.589609,-115.114061,-22.568093,-47.699702,-98.756390
20.328000,-0.685740,-0.578164,-115.861753,-23.727779,-46.906233,-98.619059
20.329000,-0.666514,-0.569924,-116.456855,-23.025864,-43.930724,-95.704585
20.330000,-0.650645,-0.554055,-116.151675,-21.149004,-41.855497,-95.292592
20.331000,-0.656291,-0.560616,-116.716258,-21.881437,-44.007019,-93.919280
20.332000,-0.666667,-0.571450,-117.875944,-21.011673,-43.015183,-93.171588
20.333000,-0.634928,-0.560616,-120.607309,-21.789883,-42.221714,-94.193942
20.334000,-0.624247,-0.554055,-124.223697,-24.292363,-45.075151,-96.543832
20.335000,-0.627604,-0.555123,-126.649882,-26.703288,-44.403754,-94.666972
20.336000,-0.618448,-0.555734,-127.077134,-27.603571,-41.016251,-91.950866
20.337000,-0.633097,-0.552071,-122.789349,-28.809033,-37.964446,-93.263142
20.338000,-0.651102,-0.545815,-121.110857,-28.702220,-36.224918,-92.561227
20.339000,-0.625467,-0.532540,-121.095598,-25.650416,-36.591135,-92.301823
20.340000,-0.613870,-0.527962,-125.154498,-26.062409,-37.125200,-91.020066
20.341000,-0.625925,-0.537881,-124.391547,-24.185550,-35.187304,-88.883803
20.342000,-0.620584,-0.532387,-123.125048,-24.322881,-35.172045,-92.133974
20.343000,-0.627298,-0.524453,-127.824826,-26.276036,-36.987869,-95.155261
20.344000,-0.621195,-0.521401,-125.993744,-26.764324,-37.827115,-93.995575
20.345000,-0.584726,-0.513771,-125.093462,-27.313649,-37.369345,-91.889830
20.346000,-0.568551,-0.505837,-127.626459,-32.318608,-40.878920,-89.494163
20.347000,-0.573129,-0.509804,-131.059739,-35.019455,-42.496376,-88.944839
20.348000,-0.555123,-0.510567,-132.829786,-35.797665,-42.038605,-90.424964
20.349000,-0.554818,-0.506447,-135.835813,-38.162814,-45.243000,-94.361791
20.350000,-0.587930,-0.513008,-137.376974,-38.117037,-45.227741,-96.742199
20.351000,-0.602274,-0.512245,-136.812390,-35.111009,-43.945983,-96.620127
20.352000,-0.602274,-0.515297,-139.711604,-35.385672,-46.128023,-96.360723
20.353000,-0.594034,-0.521859,-142.076753,-36.789502,-50.156405,-95.109483
20.354000,-0.561379,-0.507210,-145.677882,-38.635843,-50.797284,-97.154192
20.355000,-0.536355,-0.494850,-150.011444,-40.009155,-50.629435,-96.147097
20.356000,-0.542000,-0.496529,-152.468147,-37.323568,-47.882811,-92.561227
20.357000,-0.539864,-0.502327,-152.483406,-38.391699,-43.930724,-89.280537
20.358000,-0.551156,-0.507820,-151.873045,-40.970474,-46.219577,-88.822766
20.359000,-0.570230,-0.516213,-152.254520,-44.068055,-47.058824,-89.021134
20.360000,-0.549325,-0.505379,-149.233234,-43.762875,-47.486076,-89.982452
20.361000,-0.508431,-0.493629,-149.248493,-44.907301,-48.950942,-95.185779
20.362000,-0.527504,-0.509194,-153.566796,-45.120928,-50.675212,-96.452277
20.363000,-0.560464,-0.518502,-154.512856,-45.639734,-48.462654,-95.704585
20.364000,-0.565347,-0.515145,-152.452888,-48.355840,-47.547112,-96.620127
20.365000,-0.574502,-0.517739,-154.680705,-49.942779,-48.554208,-97.596704
20.366000,-0.589609,-0.523690,-157.839322,-48.462654,-51.163500,-95.872435
20.367000,-0.580148,-0.532692,-163.607233,-47.638666,-55.146105,-97.199969
20.368000,-0.572976,-0.542763,-166.887922,-47.867552,-56.183719,-98.634318
20.369000,-0.558175,-0.541085,-166.842145,-46.326390,-52.887770,-97.138933
20.370000,-0.532692,-0.516976,-165.911345,-45.838102,-49.561303,-96.589609
20.371000,-0.543526,-0.512398,-168.673228,-47.257191,-48.218509,-96.711681
20.372000,-0.567178,-0.512398,-169.161517,-48.432136,-44.113832,-96.925307
20.373000,-0.538186,-0.500954,-170.077058,-50.415808,-42.999924,-99.519341
20.374000,-0.535286,-0.512856,-176.302739,-51.682307,-46.631571,-102.388037
20.375000,-0.541238,-0.514229,-178.927291,-48.661021,-47.577630,-98.908980
20.376000,-0.525368,-0.503090,-176.867323,-46.036469,-47.379263,-98.603799
20.377000,-0.544747,-0.508278,-180.163272,-48.035401,-47.562371,-98.054475
20.378000,-0.557107,-0.513619,-183.489738,-48.004883,-46.784161,-97.566186
20.379000,-0.539712,-0.504005,-184.908827,-45.807584,-47.302968,-99.717708
20.380000,-0.546120,-0.499123,-186.068513,-45.792325,-46.570535,-99.900816
20.381000,-0.570230,-0.503548,-183.688106,-45.304036,-44.449531,-98.695354
20.382000,-0.554665,-0.497749,-179.842832,-45.120928,-42.816815,-95.170520
20.383000,-0.545205,-0.496529,-179.125658,-45.960174,-39.734493,-95.735103
20.384000,-0.546578,-0.500343,-176.195926,-42.893111,-31.189441,-92.423896
20.385000,-0.537881,-0.500649,-171.129931,-38.849470,-23.285267,-91.004807
20.386000,-0.532998,-0.497139,-171.328298,-37.476158,-20.981155,-91.828794
20.387000,-0.541543,-0.496376,-170.397498,-35.446708,-19.256886,-92.072938
20.388000,-0.525673,-0.491951,-167.177844,-32.486458,-14.908064,-90.989548
20.389000,-0.520027,-0.493629,-166.430152,-34.973678,-13.092241,-90.379187
20.390000,-0.534371,-0.503395,-163.012131,-34.393835,-9.338521,-88.303960
20.391000,-0.540169,-0.504768,-159.365225,-29.602502,-6.240940,-83.970397
20.392000,-0.536812,-0.508888,-158.571756,-29.083696,-4.882887,-83.558404
20.393000,-0.539864,-0.510262,-158.617533,-27.130541,-0.701915,-80.704967
20.394000,-0.542458,-0.503700,-159.273671,-22.995346,1.098650,-80.796521
20.395000,-0.541848,-0.502174,-163.668269,-22.323949,-3.494316,-85.282673
20.396000,-0.568399,-0.517281,-169.024186,-23.834592,-7.644770,-85.664149
20.397000,-0.567483,-0.521859,-169.848173,-23.956664,-10.330358,-83.894102
20.398000,-0.538796,-0.515755,-171.480888,-26.031891,-14.023041,-87.495232
20.399000,-0.528420,-0.511330,-174.059663,-28.152895,-18.905928,-90.012970
20.400000,-0.517433,-0.506600,-177.508202,-28.473335,-23.590448,-91.935607
20.401000,-0.515908,-0.501717,-178.957809,-31.021592,-27.084764,-92.912184
20.402000,-0.528573,-0.512093,-180.086976,-31.311513,-28.427558,-92.729076
20.403000,-0.519570,-0.510262,-178.118563,-28.091859,-30.457008,-92.149233
20.404000,-0.497749,-0.491188,-181.597620,-28.671702,-32.013428,-95.338369
20.405000,-0.490578,-0.478676,-184.725719,-29.983978,-35.629816,-95.674067
20.406000,-0.493629,-0.471351,-186.236362,-31.662470,-34.729534,-91.828794
20.407000,-0.476844,-0.462501,-187.273976,-32.104982,-34.103914,-92.164492
20.408000,-0.461738,-0.459907,-189.532311,-34.073396,-35.873960,-89.463645
20.409000,-0.438697,-0.461738,-187.243458,-33.417258,-35.049973,-89.509422
20.410000,-0.418708,-0.440986,-185.488670,-33.173114,-34.012360,-92.713817
20.411000,-0.406043,-0.422065,-188.891432,-32.150759,-35.507744,-94.834821
20.412000,-0.377966,-0.401617,-185.519188,-29.480430,-35.477226,-94.621195
20.413000,-0.327611,-0.381018,-183.764401,-26.215000,-33.722438,-92.896925
20.414000,-0.314031,-0.368048,-184.985122,-26.977951,-33.203632,-93.553063
20.415000,-0.310826,-0.355535,-185.015640,-27.237354,-30.197604,-95.033188
20.416000,-0.290684,-0.336461,-180.910964,-23.758297,-23.865110,-92.408637
20.417000,-0.265507,-0.319066,-176.562142,-24.505989,-17.044327,-91.859312
20.418000,-0.243992,-0.309148,-172.442206,-23.453117,-11.245899,-89.372091
20.419000,-0.222019,-0.297551,-167.238880,-21.408408,-7.385367,-88.883803
20.420000,-0.221408,-0.295872,-164.324407,-18.905928,-4.867628,-89.448386
20.421000,-0.230716,-0.295567,-161.654078,-16.067750,-1.861601,-85.770962
20.422000,-0.210880,-0.279240,-157.152667,-14.847028,-0.869764,-86.228733
20.423000,-0.196689,-0.269474,-152.910658,-15.243763,0.335698,-86.152438
20.424000,-0.213474,-0.270848,-149.477379,-15.472648,6.759747,-83.344778
20.425000,-0.213779,-0.260777,-144.411383,-14.404517,9.582666,-82.810712
20.426000,-0.209201,-0.244907,-145.021744,-16.205081,6.912337,-85.862516
20.427000,-0.202487,-0.238041,-147.066453,-15.640497,5.264363,-87.724117
20.428000,-0.190433,-0.232395,-145.769436,-13.504234,5.691615,-88.120851
20.429000,-0.189517,-0.231022,-146.807050,-15.197986,3.265431,-90.501259
20.430000,-0.195621,-0.225528,-148.485542,-15.152209,3.067063,-89.539940
20.431000,-0.180362,-0.212711,-151.842527,-13.427939,1.403830,-88.334478
20.432000,-0.171664,-0.199741,-154.375525,-16.144045,-0.808728,-88.059815
20.433000,-0.149691,-0.185245,-154.741741,-17.624170,-1.419089,-88.426032
20.434000,-0.119631,-0.168612,-153.215839,-18.173495,0.442512,-88.914321
20.435000,-0.130465,-0.162814,-154.161898,-17.502098,-2.700847,-88.242924
20.436000,-0.150912,-0.183871,-152.483406,-17.013809,-1.571679,-88.670176
20.437000,-0.168307,-0.185245,-150.041962,-16.083009,2.777142,-84.107729
20.438000,-0.184939,-0.178988,-150.240330,-15.884642,1.983673,-84.458686
20.439000,-0.200198,-0.182498,-148.973831,-15.365835,2.502480,-86.854353
20.440000,-0.195468,-0.181277,-147.783627,-13.962005,-0.030518,-89.356832
20.441000,-0.180056,-0.177157,-147.631037,-15.701534,-0.473030,-90.897993
20.442000,-0.187839,-0.181735,-146.746014,-20.126650,1.205463,-90.394446
20.443000,-0.201724,-0.193027,-144.167239,-17.868315,2.288853,-89.280537
20.444000,-0.198215,-0.198672,-143.160143,-17.318990,2.975509,-89.951934
20.445000,-0.221561,-0.208133,-143.556878,-19.577325,1.403830,-87.998779
20.446000,-0.231327,-0.212253,-143.114366,-18.142977,-0.839246,-86.869612
20.447000,-0.222477,-0.209659,-142.153048,-16.479744,-2.944991,-88.151369
20.448000,-0.226291,-0.213626,-141.344320,-16.647593,-6.149386,-88.960098
20.449000,-0.184939,-0.205081,-138.460365,-18.402380,-6.637675,-86.778058
20.450000,-0.121614,-0.184787,-137.132830,-19.531548,-3.952087,-85.862516
20.451000,-0.103304,-0.184024,-138.292515,-19.089036,-2.273594,-85.725185
20.452000,-0.083772,-0.185092,-137.834745,-20.065614,-0.915541,-84.397650
20.453000,-0.039979,-0.173037,-136.583505,-21.438926,-2.182040,-84.870680
20.454000,-0.021210,-0.169833,-140.978103,-24.032959,-3.875792,-85.130083
20.455000,-0.024109,-0.172580,-143.434806,-20.263981,-6.134127,-83.268482
20.456000,-0.005646,-0.166171,-142.961776,-19.211109,-7.690547,-81.086442
20.457000,0.019989,-0.163119,-141.908904,-21.057450,-5.371176,-76.127260
20.458000,0.026703,-0.171817,-139.162280,-20.111391,-4.074159,-72.968643
20.459000,0.033722,-0.176242,-135.362783,-19.317922,-3.570611,-72.526131
20.460000,0.029145,-0.178988,-138.719768,-19.058518,-5.966278,-73.670558
20.461000,0.000763,-0.190127,-137.758450,-19.592584,-6.256199,-72.495613
20.462000,0.007019,-0.184176,-137.972076,-20.553902,-4.196231,-73.197528
20.463000,0.009003,-0.186923,-137.560082,-21.835660,-4.043641,-74.982834
20.464000,-0.012512,-0.195163,-137.056535,-21.591516,-0.854505,-74.525063
20.465000,-0.012818,-0.195468,-134.615091,-22.735943,0.747692,-74.692912
20.466000,-0.024262,-0.206760,-136.018921,-26.199741,0.762951,-77.470054
20.467000,-0.076143,-0.242771,-137.636378,-25.833524,-1.876860,-79.179065
20.468000,-0.142519,-0.267033,-136.903944,-24.475471,-4.165713,-79.835203
20.469000,-0.216983,-0.294347,-138.979171,-26.199741,-7.217517,-80.033570
20.470000,-0.303655,-0.328985,-138.536660,-28.778515,-7.217517,-78.095674
20.471000,-0.373388,-0.353704,-141.313802,-26.581216,-6.164645,-76.585031
20.472000,-0.424811,-0.375067,-143.389029,-29.037919,-7.202258,-80.277714
20.473000,-0.477607,-0.396124,-145.235370,-29.297322,-6.134127,-79.255360
20.474000,-0.493324,-0.401465,-145.235370,-29.037919,-6.027314,-76.874952
20.475000,-0.505379,-0.404364,-145.204852,-30.807965,-6.927596,-77.485313
20.476000,-0.525521,-0.421149,-144.380865,-31.708248,-4.806592,-74.418250
20.477000,-0.540780,-0.433661,-142.336156,-31.113146,-1.052873,-71.000229
20.478000,-0.552224,-0.431373,-143.617914,-31.845579,-0.778210,-72.297246
20.479000,-0.572976,-0.439765,-145.235370,-32.669566,-1.876860,-73.868925
20.480000,-0.589609,-0.442512,-141.344320,-30.685893,-2.990768,-71.473259
20.481000,-0.590372,-0.437476,-139.085985,-31.387808,-2.777142,-70.847639
20.482000,-0.602121,-0.440375,-141.176471,-33.676661,-2.349889,-67.124437
20.483000,-0.593729,-0.431373,-140.367742,-33.249409,-0.869764,-66.010529
20.484000,-0.550088,-0.419318,-140.642405,-32.806897,-1.083391,-65.613794
20.485000,-0.534524,-0.423133,-140.978103,-33.920806,-1.434348,-65.186542
20.486000,-0.521096,-0.424506,-138.643473,-31.692988,0.534066,-63.004501
20.487000,-0.518349,-0.418555,-138.735027,-30.914778,0.137331,-62.317845
20.488000,-0.542916,-0.436866,-138.490883,-31.738766,-1.052873,-64.576181
20.489000,-0.566262,-0.450294,-136.385138,-29.343099,1.617456,-65.140764
20.490000,-0.566262,-0.445411,-139.101244,-26.703288,2.883955,-63.477531
20.491000,-0.563058,-0.448005,-139.986267,-28.107118,-0.152590,-63.859007
20.492000,-0.567636,-0.446326,-138.612955,-26.443885,0.778210,-59.906920
20.493000,-0.563973,-0.443580,-139.147021,-27.374685,2.746624,-63.340200
20.494000,-0.574807,-0.450446,-141.603723,-28.641184,0.671397,-65.339132
20.495000,-0.569314,-0.455940,-142.885481,-26.443885,-0.961318,-62.806134
20.496000,-0.551614,-0.450904,-138.902876,-23.727779,-1.800565,-60.517281
20.497000,-0.554208,-0.462654,-138.704509,-23.895628,-1.449607,-57.328145
20.498000,-0.568246,-0.476081,-139.147021,-23.697261,-1.831083,-55.069810
20.499000,-0.568399,-0.469520,-135.698482,-22.919051,-0.900282,-56.305791
20.500000,-0.575265,-0.472114,-133.348592,-24.536507,-3.479057,-57.526513
20.501000,-0.615244,-0.480812,-136.125734,-23.743038,-2.563516,-56.504158
20.502000,-0.622721,-0.478370,-136.476692,-22.766461,-3.295949,-56.458381
20.503000,-0.617075,-0.473335,-138.185702,-23.056382,-4.455634,-56.488899
20.504000,-0.605936,-0.473335,-138.506142,-21.759365,-3.448539,-56.916152
20.505000,-0.580301,-0.462196,-133.791104,-21.423667,-3.067063,-54.825666
20.506000,-0.573281,-0.457465,-133.714809,-22.735943,-5.523766,-56.763561
20.507000,-0.592355,-0.459297,-136.842908,-21.683070,-4.959182,-56.168460
20.508000,-0.585489,-0.465705,-136.095216,-22.430762,-4.119936,-53.223468
20.509000,-0.574960,-0.463416,-137.560082,-22.644388,-4.196231,-55.603876
20.510000,-0.564584,-0.455787,-137.163348,-23.926146,-1.541161,-55.374990
20.511000,-0.561379,-0.439765,-135.179675,-24.368658,-1.297017,-55.710689
20.512000,-0.539254,-0.427100,-136.018921,-24.475471,-1.800565,-55.634394
20.513000,-0.535439,-0.427100,-138.963912,-25.329976,-3.250172,-52.292668
20.514000,-0.544594,-0.430304,-139.513237,-22.690166,-6.332494,-51.361868
20.515000,-0.548714,-0.434424,-140.306706,-22.354467,-10.315099,-56.733043
20.516000,-0.563668,-0.440375,-141.039139,-24.292363,-7.248035,-56.961929
20.517000,-0.563210,-0.439307,-138.796063,-23.773556,-2.349889,-53.864347
20.518000,-0.554055,-0.434882,-141.466392,-24.872206,0.701915,-55.512322
20.519000,-0.560922,-0.440528,-143.022812,-26.749065,1.388571,-55.039292
20.520000,-0.550088,-0.435035,-140.871290,-25.131609,-1.525902,-52.765698
20.521000,-0.540932,-0.421302,-137.193866,-26.092927,-5.813687,-52.964065
20.522000,-0.548714,-0.423133,-135.011826,-26.962692,-8.209354,-51.346609
20.523000,-0.549325,-0.420844,-131.746395,-25.925078,-4.058900,-50.904097
20.524000,-0.545052,-0.415656,-128.740368,-23.910887,0.198367,-52.201114
20.525000,-0.554665,-0.416419,-127.031357,-23.849851,-0.366217,-50.766766
20.526000,-0.556954,-0.411536,-127.122911,-25.101091,-1.785306,-49.149310
20.527000,-0.541390,-0.402686,-129.106584,-25.925078,-4.592966,-49.179828
20.528000,-0.541848,-0.398413,-131.593805,-28.107118,-3.036545,-49.881743
20.529000,-0.532692,-0.395819,-129.594873,-25.635157,1.205463,-46.967269
20.530000,-0.506752,-0.384375,-129.427024,-24.444953,4.242008,-47.333486
20.531000,-0.496986,-0.388952,-129.686427,-23.987182,3.341726,-46.967269
20.532000,-0.501869,-0.393988,-128.130007,-23.270008,4.013123,-45.090410
20.533000,-0.503700,-0.388800,-125.551232,-23.834592,2.838178,-44.434272
20.534000,-0.527199,-0.393530,-128.923476,-27.771420,0.930800,-44.586862
20.535000,-0.548409,-0.394903,-129.716945,-27.878233,0.732433,-45.349813
20.536000,-0.527047,-0.380560,-128.862440,-26.947433,1.724269,-45.929656
20.537000,-0.514534,-0.374762,-126.909285,-28.091859,3.662165,-45.243000
20.538000,-0.493935,-0.374914,-125.459678,-26.703288,6.439307,-41.123064
20.539000,-0.461280,-0.359960,-123.552300,-26.382849,7.064927,-42.267491
20.540000,-0.429084,-0.341344,-123.064012,-28.107118,4.547189,-45.944915
20.541000,-0.392615,-0.318456,-123.308156,-30.304417,3.616388,-44.983597
20.542000,-0.311742,-0.272221,-123.842222,-32.455940,1.434348,-45.883879
20.543000,-0.228275,-0.225071,-127.794308,-34.119173,-1.297017,-47.730220
20.544000,-0.136263,-0.167086,-127.046616,-33.569848,1.159686,-45.960174
20.545000,0.008392,-0.083314,-123.216602,-31.555657,4.211490,-44.663157
20.546000,0.183413,0.018311,-120.210575,-32.623789,3.921569,-45.960174
20.547000,0.350805,0.131533,-118.730449,-30.029755,6.103609,-44.251164
20.548000,0.519265,0.259403,-111.940185,-27.054246,9.857328,-42.725261
20.549000,0.668498,0.399023,-106.996262,-26.352331,13.382162,-42.465858
20.550000,0.804150,0.539101,-102.967880,-24.841688,20.263981,-41.184100
20.551000,0.945754,0.700237,-96.940566,-21.316854,26.062409,-40.970474
20.552000,1.156481,0.913405,-89.417868,-18.646525,27.679866,-40.512703
20.553000,1.407187,1.147173,-82.841230,-16.159304,36.102846,-32.913710
20.554000,1.720607,1.441825,-71.259632,-11.856260,46.952010,-30.304417
20.555000,2.091859,1.775692,-62.043183,-7.248035,59.845884,-26.810101
20.556000,2.502785,2.124056,-46.784161,0.076295,77.744717,-20.614939
20.557000,2.949264,2.449378,-27.252613,8.178836,93.858244,-17.792020
20.558000,3.333181,2.685588,-7.553216,19.424735,109.346151,-17.013809
20.559000,3.580987,2.831922,14.480812,28.931106,124.742504,-9.948882
20.560000,3.748684,2.925917,42.877852,38.025483,142.915999,-3.189136
20.561000,3.936675,3.029374,69.916838,47.119860,164.751659,3.006027
20.562000,4.130465,3.121691,96.879530,55.771725,187.609674,10.009918
20.563000,4.315099,3.188678,127.656977,70.664530,212.756542,16.723888
20.564000,4.443122,3.213397,157.686732,79.697871,236.545357,20.935378
20.565000,4.436866,3.141833,185.366598,86.747539,256.412604,26.443885
20.566000,4.320592,3.003738,214.282444,99.015793,273.884184,34.546426
20.567000,4.149081,2.856336,239.917601,109.788663,286.579690,38.559548
20.568000,3.914092,2.679637,259.800107,115.449760,300.465400,45.365072
20.569000,3.614710,2.484016,280.308232,122.987716,316.670481,48.264286
20.570000,3.269856,2.286564,299.244678,129.503319,327.214466,48.783093
20.571000,2.904097,2.067292,312.108034,131.288624,332.692454,48.798352
20.572000,2.556954,1.828336,324.071107,135.164416,340.032044,49.301900
20.573000,2.156710,1.522698,336.675059,140.306706,340.886549,50.644694
20.574000,1.637293,1.140917,346.532387,144.869154,344.853895,50.720989
20.575000,0.981003,0.720836,356.038758,148.989090,350.041962,54.734112
20.576000,0.365759,0.372015,360.097658,149.462119,350.026703,52.658885
20.577000,-0.100862,0.098421,354.741741,143.617914,344.396124,48.203250
20.578000,-0.557107,-0.211185,346.196689,138.124666,332.814527,43.274586
20.579000,-1.018235,-0.560159,328.542000,128.618296,312.016480,35.645075
20.580000,-1.525902,-0.932937,295.765621,114.534218,282.871748,25.299458
20.581000,-1.975280,-1.219959,261.905852,101.655604,255.970092,18.081941
20.582000,-2.249943,-1.379263,228.534371,88.517586,233.142596,9.979400
20.583000,-2.416876,-1.472801,196.368353,75.959411,208.285649,1.419089
20.584000,-2.578775,-1.596399,166.308080,63.569085,184.817273,-8.529793
20.585000,-2.829480,-1.799496,132.860304,48.920424,160.753796,-19.302663
20.586000,-3.064775,-1.994354,95.292592,32.349126,130.327306,-28.137636
20.587000,-3.214923,-2.131533,59.098192,17.288472,103.807126,-34.760052
20.588000,-3.249714,-2.202029,28.793774,4.913405,79.346914,-41.702907
20.589000,-3.206836,-2.221256,-1.541161,-9.521630,58.075837,-49.759670
20.590000,-3.077745,-2.173953,-27.557794,-17.959869,43.778134,-53.543908
20.591000,-2.835431,-2.046845,-48.447395,-23.743038,30.640116,-58.518349
20.592000,-2.562905,-1.903563,-67.612726,-27.817197,16.739147,-64.560922
20.593000,-2.295567,-1.762875,-85.465782,-32.394903,7.248035,-65.201801
20.594000,-2.029297,-1.613794,-100.846876,-37.796597,-1.220722,-67.658503
20.595000,-1.798734,-1.479057,-114.396887,-43.732357,-10.894942,-69.596399
20.596000,-1.600214,-1.360800,-123.842222,-49.317159,-15.426871,-69.840543
20.597000,-1.401694,-1.234760,-127.870603,-53.940642,-17.044327,-71.213855
20.598000,-1.205005,-1.104143,-137.682155,-57.022965,-24.658579,-72.861830
20.599000,-1.039292,-0.982528,-145.418479,-59.372854,-30.594339,-72.617685
20.600000,-0.918135,-0.863813,-151.369497,-57.770657,-31.967651,-74.845502
20.601000,-0.816510,-0.740978,-152.956435,-58.396277,-32.776379,-79.636835
20.602000,-0.742657,-0.629129,-151.369497,-59.571221,-32.166018,-80.704967
20.603000,-0.653696,-0.510262,-144.487678,-53.986419,-27.222095,-76.752880
20.604000,-0.558175,-0.381628,-136.812390,-51.819638,-19.638361,-74.708171
20.605000,-0.487831,-0.275883,-132.585641,-49.347677,-13.855192,-74.814984
20.606000,-0.414282,-0.176394,-129.365988,-46.051728,-12.436103,-73.472190
20.607000,-0.349126,-0.096284,-129.930571,-46.417945,-13.916228,-75.822080
20.608000,-0.296788,-0.043336,-131.670100,-44.342718,-13.550011,-74.799725
20.609000,-0.251774,-0.016175,-133.134966,-43.976501,-10.605020,-78.019379
20.610000,-0.211795,0.001221,-134.554055,-47.837034,-8.209354,-82.063020
20.611000,-0.220951,-0.014954,-140.917067,-50.019074,-8.209354,-85.160601
20.612000,-0.251316,-0.049134,-143.297475,-51.407645,-9.018082,-85.633631
20.613000,-0.265202,-0.084688,-147.219043,-51.697566,-15.381094,-85.420005
20.614000,-0.293736,-0.134432,-155.580987,-54.749371,-22.659648,-85.282673
20.615000,-0.313115,-0.188449,-163.591974,-53.788052,-28.442817,-82.978561
20.616000,-0.315709,-0.226749,-166.094453,-54.123751,-31.692988,-84.153506
20.617000,-0.342412,-0.261997,-165.957122,-58.548867,-32.654307,-85.618372
20.618000,-0.380255,-0.291142,-168.444343,-60.929274,-33.173114,-83.604181
20.619000,-0.384527,-0.307774,-169.375143,-60.105287,-34.988937,-84.275578
20.620000,-0.382238,-0.314641,-170.840009,-61.936370,-36.881056,-87.220569
20.621000,-0.381476,-0.313420,-172.198062,-63.218128,-33.890288,-86.717021
20.622000,-0.372168,-0.297704,-169.207294,-63.584344,-32.852674,-87.602045
20.623000,-0.372320,-0.282139,-168.917372,-66.926070,-31.937133,-89.188983
20.624000,-0.382238,-0.264897,-163.714046,-66.132601,-31.784543,-85.236896
20.625000,-0.350195,-0.228428,-158.068208,-64.286259,-30.884260,-82.749676
20.626000,-0.313115,-0.189059,-157.122148,-64.438849,-33.493553,-85.084306
20.627000,-0.281834,-0.160525,-156.725414,-62.180514,-32.486458,-84.580758
20.628000,-0.243839,-0.129244,-156.633860,-59.601740,-30.151827,-84.382391
20.629000,-0.217288,-0.112917,-158.251316,-61.051347,-30.975814,-84.687572
20.630000,-0.215152,-0.110170,-158.602274,-61.905852,-29.602502,-83.283742
20.631000,-0.194553,-0.105440,-159.578851,-63.599603,-30.136568,-81.712062
20.632000,-0.189975,-0.106355,-163.363088,-66.941329,-31.357290,-83.497368
20.633000,-0.212100,-0.121767,-166.628519,-70.557717,-33.112078,-85.023270
20.634000,-0.222019,-0.131075,-169.344625,-68.940261,-33.051041,-86.045624
20.635000,-0.222934,-0.140536,-174.395361,-67.734798,-32.379644,-87.342641
20.636000,-0.237430,-0.159915,-177.355612,-65.873198,-32.593271,-86.305028
20.637000,-0.239719,-0.170596,-175.051499,-62.821393,-32.806897,-84.199283
20.638000,-0.240482,-0.169680,-175.173571,-63.599603,-32.913710,-85.984588
20.639000,-0.253758,-0.182193,-175.387198,-63.935302,-30.945296,-84.550240
20.640000,-0.237888,-0.181277,-173.952850,-62.455177,-27.603571,-85.130083
20.641000,-0.205692,-0.165408,-171.984436,-62.363622,-26.749065,-86.335546
20.642000,-0.186923,-0.155184,-171.923400,-63.874266,-24.078737,-85.786221
20.643000,-0.169070,-0.137636,-170.092317,-65.461204,-22.339208,-85.450523
20.644000,-0.151980,-0.114595,-169.512474,-66.300450,-20.111391,-86.564431
20.645000,-0.156558,-0.101015,-169.527733,-67.612726,-17.608911,-87.205310
20.646000,-0.145724,-0.087129,-169.542992,-65.842679,-15.960937,-86.350805
20.647000,-0.121614,-0.072786,-167.223621,-62.775616,-16.968032,-89.677272
20.648000,-0.122988,-0.064240,-167.009995,-62.897688,-17.151141,-90.302892
20.649000,-0.110018,-0.054780,-162.386511,-60.929274,-12.649729,-88.059815
20.650000,-0.079652,-0.040284,-159.319448,-60.563058,-9.735256,-87.876707
20.651000,-0.075990,-0.034943,-159.319448,-62.882429,-8.712902,-88.868544
20.652000,-0.082856,-0.031739,-157.854582,-64.744030,-4.623484,-87.479973
20.653000,-0.057374,-0.024872,-157.198444,-65.812161,-6.271458,-88.700694
20.654000,-0.057069,-0.026703,-160.570687,-66.453040,-10.330358,-89.112688
20.655000,-0.046540,-0.026093,-161.364157,-63.706416,-7.827878,-88.487068
20.656000,-0.028077,-0.022126,-160.219730,-62.897688,-8.560311,-90.180819
20.657000,-0.012512,-0.017090,-159.945068,-65.201801,-11.413748,-90.119783
20.658000,-0.019989,-0.014954,-159.044785,-66.193637,-11.841001,-90.104524
20.659000,-0.017090,-0.011292,-156.145571,-64.881361,-12.985428,-93.049516
20.660000,-0.019684,-0.013886,-154.833295,-65.751125,-17.776761,-93.690394
20.661000,-0.033570,-0.018616,-152.651255,-65.842679,-15.793088,-90.058747
20.662000,-0.016022,-0.003357,-150.637064,-64.057374,-15.167468,-88.059815
20.663000,0.017395,0.006867,-150.667582,-64.362554,-13.275349,-90.547036
20.664000,0.033875,0.015259,-146.761273,-64.820325,-10.986496,-89.646754
20.665000,0.048981,0.035554,-141.405356,-63.736934,-10.727092,-89.600977
20.666000,0.067140,0.054475,-140.474556,-64.850843,-13.656825,-90.074006
20.667000,0.086366,0.055543,-140.520333,-64.301518,-13.046464,-88.380255
20.668000,0.098726,0.074922,-138.673991,-62.729839,-10.894942,-89.753567
20.669000,0.112306,0.093843,-140.840772,-64.316777,-10.543984,-90.562295
20.670000,0.107729,0.094606,-142.610819,-63.614862,-9.597925,-87.495232
20.671000,0.109102,0.106508,-143.953613,-62.943465,-10.452430,-86.747539
20.672000,0.126040,0.118868,-144.914931,-63.614862,-11.261158,-87.861448
20.673000,0.150607,0.124819,-145.738918,-66.010529,-10.666056,-88.960098
20.674000,0.163272,0.131533,-144.945449,-65.934234,-12.344549,-86.640726
20.675000,0.163729,0.135195,-146.089876,-66.926070,-11.779965,-86.030365
20.676000,0.161593,0.137789,-144.136721,-69.047074,-11.749447,-82.032502
20.677000,0.180667,0.148470,-137.712673,-66.773480,-9.796292,-80.247196
20.678000,0.206302,0.166018,-137.499046,-68.863966,-10.666056,-78.873884
20.679000,0.210575,0.170596,-139.818418,-71.564813,-10.376135,-77.317464
20.680000,0.228122,0.179904,-139.650568,-69.626917,-6.790265,-78.217746
20.681000,0.247196,0.188296,-137.605859,-69.214923,-4.242008,-80.140383
20.682000,0.246738,0.191653,-134.370947,-67.154955,-1.235981,-79.850462
20.683000,0.247349,0.196994,-132.463569,-66.697185,3.311208,-80.964370
20.684000,0.263371,0.207675,-129.320211,-68.741894,1.373312,-82.902266
20.685000,0.260014,0.216220,-130.754559,-70.893416,-2.456703,-84.992752
20.686000,0.267033,0.222934,-129.503319,-71.046006,0.061036,-82.322423
20.687000,0.295262,0.246128,-127.870603,-70.740826,-4.592966,-83.451591
20.688000,0.294499,0.256809,-128.023194,-72.129397,-6.164645,-83.268482
20.689000,0.305486,0.267796,-126.115816,-72.831312,-2.014191,-82.963302
20.690000,0.332189,0.279698,-124.620432,-72.373541,0.930800,-82.658122
20.691000,0.354925,0.286259,-128.709850,-71.686885,-0.289921,-80.857557
20.692000,0.376898,0.298619,-128.374151,-71.229114,2.487221,-82.444495
20.693000,0.394446,0.310674,-129.457542,-70.084688,1.892119,-83.253223
20.694000,0.398260,0.320745,-131.853208,-69.718471,-0.564584,-81.834134
20.695000,0.404059,0.328985,-131.746395,-66.727703,-0.854505,-79.331655
20.696000,0.429847,0.344091,-126.512551,-66.971847,0.518807,-78.248264
20.697000,0.441596,0.347906,-126.222629,-70.710307,0.305180,-79.987793
20.698000,0.449836,0.352178,-125.062943,-70.298314,3.921569,-78.706035
20.699000,0.474403,0.375677,-124.910353,-71.793698,5.127031,-78.263523
20.700000,0.485847,0.391547,-126.405737,-72.037842,3.524834,-77.714199
20.701000,0.483711,0.399939,-124.818799,-70.527199,5.264363,-76.569772
20.702000,0.495308,0.413367,-118.776226,-67.170214,4.684520,-80.003052
20.703000,0.503090,0.424964,-119.523919,-67.963684,4.623484,-82.276646
20.704000,0.510109,0.433661,-116.365301,-67.551690,7.385367,-79.575799
20.705000,0.545357,0.453803,-113.389792,-66.559854,9.079118,-81.712062
20.706000,0.578470,0.466621,-116.472114,-68.802930,7.034409,-82.703899
20.707000,0.587930,0.475013,-118.944076,-67.536431,7.598993,-83.192187
20.708000,0.605936,0.491035,-117.341878,-63.218128,8.773938,-84.809644
20.709000,0.613260,0.502327,-115.907530,-63.050278,9.887846,-86.396582
20.710000,0.618906,0.509499,-115.480278,-62.851911,12.588693,-81.757839
20.711000,0.644694,0.526284,-114.427405,-64.103151,14.373999,-76.081483
20.712000,0.668956,0.545357,-112.901503,-64.164187,13.534752,-77.775235
20.713000,0.675669,0.552071,-110.551614,-63.187610,13.199054,-78.461891
20.714000,0.700084,0.568399,-109.346151,-60.395209,14.679179,-79.804685
20.715000,0.712444,0.584115,-110.307469,-59.891661,13.656825,-80.140383
20.716000,0.704356,0.591897,-112.138552,-58.487831,18.097200,-79.774166
20.717000,0.730449,0.607004,-108.751049,-58.533608,24.612802,-78.904402
20.718000,0.766766,0.626230,-107.637140,-61.249714,24.734874,-78.370336
20.719000,0.784771,0.640421,-106.462196,-62.439918,22.980087,-77.683680
20.720000,0.798657,0.657511,-104.386969,-59.891661,22.400244,-76.859693
20.721000,0.824445,0.674296,-103.150988,-59.235523,20.828565,-78.263523
20.722000,0.831617,0.679789,-102.143893,-58.014801,23.483635,-76.218814
20.723000,0.843366,0.695659,-98.573281,-56.031128,24.048219,-76.554513
20.724000,0.877394,0.712749,-94.346532,-59.296559,26.794842,-75.745785
20.725000,0.889601,0.723278,-92.683299,-60.761425,27.512016,-75.822080
20.726000,0.911421,0.742504,-90.714885,-58.579385,28.198672,-76.829175
20.727000,0.942397,0.765393,-92.591745,-57.953765,28.992142,-75.822080
20.728000,0.951095,0.775006,-94.834821,-58.548867,26.245518,-73.014420
20.729000,0.945754,0.783093,-93.598840,-55.252918,29.449912,-71.137560
20.730000,0.972305,0.802472,-91.172656,-52.979324,32.745861,-73.594263
20.731000,1.004349,0.822156,-90.333410,-53.849088,32.715343,-74.753948
20.732000,1.034714,0.842603,-89.127947,-52.445258,36.209659,-73.380636
20.733000,1.082322,0.872969,-85.053788,-51.544976,36.438544,-74.799725
20.734000,1.106737,0.884565,-84.550240,-51.087205,36.179141,-76.478218
20.735000,1.116197,0.895857,-82.581827,-47.989624,37.796597,-73.121233
20.736000,1.143969,0.916152,-82.322423,-46.509499,41.382467,-75.806821
20.737000,1.165789,0.931106,-83.665217,-47.638666,43.289845,-74.876020
20.738000,1.183185,0.944228,-85.023270,-44.617380,43.686580,-72.373541
20.739000,1.210651,0.966964,-82.902266,-40.756847,41.229877,-71.351186
20.740000,1.230030,0.984054,-80.964370,-39.032578,39.520867,-71.549554
20.741000,1.250172,0.997330,-76.966506,-37.109941,43.701839,-69.489586
20.742000,1.294575,1.022202,-73.685817,-36.087587,45.334554,-68.192569
20.743000,1.327077,1.042344,-73.502708,-36.560616,45.044633,-65.552758
20.744000,1.348440,1.056992,-71.000229,-36.255436,49.057755,-61.783780
20.745000,1.387350,1.078965,-70.618753,-34.500649,49.515526,-57.984283
20.746000,1.413291,1.096666,-70.572976,-34.668498,48.523690,-62.348363
20.747000,1.413901,1.104753,-71.412222,-32.608530,48.279545,-62.272068
20.748000,1.436942,1.122148,-69.398032,-30.182345,50.797284,-57.846952
20.749000,1.462882,1.143511,-68.543526,-31.280995,48.279545,-55.664912
20.750000,1.478599,1.156481,-67.673762,-31.204700,50.339513,-51.132982
20.751000,1.503471,1.177844,-64.682994,-29.098955,53.971160,-53.345541
20.752000,1.531701,1.194171,-65.964752,-27.023728,55.725948,-54.718853
20.753000,1.540246,1.201801,-67.444877,-23.437858,55.924315,-53.498131
20.754000,1.565881,1.217212,-68.009461,-20.996414,56.076905,-53.421836
20.755000,1.584649,1.227741,-66.681926,-20.859083,53.574426,-54.200046
20.756000,1.594720,1.236896,-68.329900,-19.226368,52.750439,-53.345541
20.757000,1.612573,1.246204,-66.926070,-18.188754,56.168460,-53.101396
20.758000,1.641566,1.264210,-66.361486,-19.241627,56.092164,-54.886702
20.759000,1.658045,1.271382,-64.927138,-19.928283,57.404440,-53.971160
20.760000,1.688258,1.283284,-62.012665,-14.206149,59.296559,-52.613107
20.761000,1.716335,1.300069,-61.295491,-14.541848,58.487831,-53.421836
20.762000,1.725795,1.304799,-60.044251,-14.709697,61.661707,-53.101396
20.763000,1.739071,1.318685,-60.090028,-13.153277,65.217060,-54.337377
20.764000,1.756008,1.328298,-58.640421,-12.954910,66.788739,-51.956970
20.765000,1.758145,1.333333,-58.319982,-13.397421,68.055238,-53.620203
20.766000,1.763790,1.340352,-59.601740,-11.566339,69.626917,-53.879606
20.767000,1.785000,1.355612,-60.639353,-8.743420,69.062333,-57.434958
20.768000,1.792477,1.361410,-60.120546,-6.607156,67.475395,-54.428931
20.769000,1.809415,1.364462,-57.709621,-3.631647,69.886320,-53.864347
20.770000,1.834287,1.373007,-56.931411,-4.165713,69.748989,-57.312886
20.771000,1.841154,1.375753,-59.754330,-5.249104,69.428550,-60.196841
20.772000,1.839933,1.381094,-59.189746,-2.059968,70.359350,-60.975051
20.773000,1.859007,1.387961,-61.676967,-2.731365,69.214923,-60.547799
20.774000,1.848325,1.386282,-65.400168,-2.014191,63.889525,-58.823529
20.775000,1.836728,1.382010,-67.185473,-2.517739,64.347295,-56.229496
20.776000,1.843290,1.391012,-69.977874,-2.746624,68.574044,-54.627298
20.777000,1.844205,1.391012,-73.746853,-4.425116,71.549554,-55.146105
20.778000,1.836423,1.385519,-76.447700,-5.172808,73.304341,-52.201114
20.779000,1.851682,1.389334,-76.874952,-4.821851,72.693980,-53.849088
20.780000,1.837797,1.386282,-80.445563,-6.988632,71.015488,-52.689403
20.781000,1.800870,1.374838,-81.773098,-8.041505,71.793698,-52.002747
20.782000,1.790341,1.367361,-79.056992,-6.576638,71.610590,-54.810407
20.783000,1.783322,1.360647,-80.460822,-5.279622,74.387732,-55.603876
20.784000,1.773709,1.351797,-80.079347,-2.380407,80.537118,-54.749371
20.785000,1.766537,1.343099,-76.783398,1.312276,84.733349,-55.283436
20.786000,1.733883,1.325246,-74.448768,3.173877,82.841230,-54.886702
20.787000,1.694820,1.305715,-77.103838,5.325399,83.451591,-55.481804
20.788000,1.667964,1.290913,-76.371405,5.508507,87.144274,-55.680171
20.789000,1.638666,1.264363,-79.774166,1.525902,87.876707,-55.909056
20.790000,1.603113,1.240253,-80.903334,1.281758,89.097429,-54.932479
20.791000,1.569390,1.222248,-80.064088,4.043641,93.400473,-55.344472
20.792000,1.542077,1.201190,-79.377432,5.081254,97.550927,-55.176623
20.793000,1.504387,1.168383,-77.637903,7.034409,102.738994,-52.689403
20.794000,1.447013,1.137865,-76.401923,10.528725,103.791867,-48.187991
20.795000,1.398489,1.106279,-79.606317,8.178836,95.292592,-51.132982
20.796000,1.343709,1.064317,-84.733349,3.601129,87.220569,-54.047456
20.797000,1.292744,1.033646,-86.427100,2.166781,82.124056,-55.939574
20.798000,1.258259,0.992752,-94.331273,-1.647974,73.090715,-58.670939
20.799000,1.197986,0.947433,-104.051270,-5.081254,68.848707,-60.364691
20.800000,1.136950,0.907301,-107.438773,-1.434348,63.614862,-60.563058
20.801000,1.074083,0.872206,-109.132525,-3.204395,59.372854,-59.906920
20.802000,0.999924,0.822766,-113.511864,-6.500343,55.268177,-63.324941
20.803000,0.934157,0.774243,-113.908598,-8.484016,52.719921,-64.835584
20.804000,0.873274,0.733806,-115.068284,-9.002823,49.088273,-64.682994
20.805000,0.803693,0.681621,-116.426337,-12.802319,45.700771,-68.024720
20.806000,0.735637,0.627451,-117.219806,-14.755474,43.091478,-68.116274
20.807000,0.675212,0.584726,-121.599145,-15.777829,39.108873,-68.574044
20.808000,0.604715,0.534066,-127.077134,-19.348440,38.300145,-68.986038
20.809000,0.538643,0.480049,-129.655909,-21.255818,38.269627,-66.102083
20.810000,0.483864,0.435798,-132.722972,-22.171359,35.202564,-67.887388
20.811000,0.410468,0.382696,-135.774777,-27.252613,31.464103,-69.810025
20.812000,0.333562,0.325933,-137.270161,-25.925078,28.122377,-68.146792
20.813000,0.273899,0.279545,-139.879454,-24.597543,28.824292,-68.665599
20.814000,0.195621,0.229496,-145.723659,-23.788815,26.840620,-67.841611
20.815000,0.127260,0.177920,-146.730755,-21.240558,30.060273,-66.849775
20.816000,0.096742,0.138857,-146.334020,-20.920119,31.616693,-67.200732
20.817000,0.038453,0.092012,-147.127489,-23.331044,31.372549,-65.476463
20.818000,-0.044404,0.039368,-145.174334,-23.239490,32.684825,-64.957656
20.819000,-0.109407,-0.008240,-141.466392,-21.957733,33.478294,-64.789807
20.820000,-0.177462,-0.059052,-141.313802,-25.207904,32.196536,-65.232319
20.821000,-0.250706,-0.113375,-143.083848,-25.436790,33.676661,-63.752193
20.822000,-0.292515,-0.152590,-143.572137,-24.505989,32.440681,-65.476463
20.823000,-0.342260,-0.186160,-146.196689,-26.398108,28.732738,-66.437781
20.824000,-0.397498,-0.229648,-146.898604,-27.206836,28.534371,-66.834516
20.825000,-0.429847,-0.260472,-145.464256,-26.932174,25.696193,-66.361486
20.826000,-0.482033,-0.302129,-148.546578,-29.343099,19.485771,-67.643244
20.827000,-0.547799,-0.347906,-155.992981,-30.975814,16.128786,-67.338064
20.828000,-0.599680,-0.382086,-158.495460,-31.998169,13.275349,-67.475395
20.829000,-0.633555,-0.415198,-163.576715,-33.554589,7.934691,-68.635080
20.830000,-0.664073,-0.448768,-167.528801,-34.576944,8.590829,-68.131533
20.831000,-0.685435,-0.473487,-165.758755,-34.195468,8.621347,-69.123369
20.832000,-0.719005,-0.502937,-167.605097,-37.567712,1.556420,-70.496681
20.833000,-0.768750,-0.542153,-169.756619,-41.565576,-1.235981,-66.987106
20.834000,-0.803693,-0.567483,-174.196994,-41.290913,-1.983673,-67.048142
20.835000,-0.827344,-0.592660,-177.157244,-44.296941,-3.967346,-68.238346
20.836000,-0.857710,-0.622568,-180.132753,-44.998856,-4.028382,-65.583276
20.837000,-0.877852,-0.639658,-179.369802,-45.670253,-4.531930,-62.851911
20.838000,-0.905165,-0.657664,-179.613947,-43.717098,-4.211490,-62.928206
20.839000,-0.930800,-0.679332,-181.353475,-44.678416,-0.793469,-64.560922
20.840000,-0.948653,-0.696422,-178.744182,-42.572671,3.524834,-64.164187
20.841000,-0.963760,-0.711528,-180.132753,-43.945983,3.219654,-62.012665
20.842000,-0.982834,-0.732128,-179.522393,-43.808652,0.610361,-59.067674
20.843000,-0.999619,-0.753185,-177.187762,-41.367208,0.564584,-56.931411
20.844000,-1.003586,-0.765393,-177.508202,-44.419013,1.846342,-59.143969
20.845000,-1.020981,-0.785077,-176.195926,-47.638666,-0.137331,-61.493858
20.846000,-1.032731,-0.798657,-175.692378,-46.387427,-1.037613,-64.682994
20.847000,-1.045701,-0.803082,-177.584497,-45.563439,-5.020218,-68.589303
20.848000,-1.075456,-0.822309,-182.192721,-45.685512,-7.003891,-70.160983
20.849000,-1.094377,-0.837873,-184.145876,-44.739452,-6.881819,-68.528267
20.850000,-1.085222,-0.841840,-184.359503,-45.868620,-5.889982,-66.422522
20.851000,-1.104448,-0.855116,-188.616770,-45.609216,-6.546120,-65.308614
20.852000,-1.128252,-0.866712,-187.151904,-45.441367,-2.716106,-64.225223
20.853000,-1.131609,-0.870069,-187.731746,-44.815747,-0.900282,-66.849775
20.854000,-1.141985,-0.881209,-192.263676,-43.457694,-2.670329,-70.542458
20.855000,-1.153887,-0.887160,-192.828260,-40.970474,-5.020218,-69.336995
20.856000,-1.155566,-0.888380,-194.201572,-38.620584,-3.448539,-68.406195
20.857000,-1.163500,-0.894942,-193.591211,-39.337758,-2.121004,-69.535363
20.858000,-1.170214,-0.904250,-191.210803,-37.064164,-0.457771,-67.460136
20.859000,-1.157702,-0.899977,-188.937209,-36.621653,-1.251240,-66.468299
20.860000,-1.151751,-0.905776,-189.761196,-38.162814,-3.006027,-68.314641
20.861000,-1.173724,-0.911269,-189.013504,-37.750820,1.159686,-67.521172
20.862000,-1.171893,-0.906996,-188.387884,-38.193332,1.358053,-70.176242
20.863000,-1.186999,-0.913252,-187.121386,-40.634775,0.167849,-69.581140
20.864000,-1.191119,-0.917678,-184.405280,-39.673457,4.974441,-67.780575
20.865000,-1.181506,-0.913100,-180.361639,-37.415122,6.881819,-67.322805
20.866000,-1.175250,-0.915084,-181.567102,-38.727398,7.141222,-68.863966
20.867000,-1.176623,-0.920729,-182.146944,-36.102846,7.705806,-68.482490
20.868000,-1.170672,-0.920577,-179.720760,-34.866865,8.789197,-67.261769
20.869000,-1.165942,-0.918441,-176.974136,-37.369345,6.790265,-68.070497
20.870000,-1.180591,-0.920729,-175.509270,-36.575875,9.384298,-63.721675
20.871000,-1.175860,-0.912795,-175.906004,-35.339895,8.651865,-65.415427
20.872000,-1.165942,-0.910658,-177.645533,-36.804761,9.048600,-67.414359
20.873000,-1.161212,-0.914168,-175.951781,-38.254368,9.628443,-66.666667
20.874000,-1.146258,-0.906691,-173.800259,-37.857633,10.833906,-66.712444
20.875000,-1.145647,-0.902266,-174.670024,-37.811856,7.492180,-70.267796
20.876000,-1.158923,-0.910353,-173.296712,-37.964446,9.918364,-69.016556
20.877000,-1.158160,-0.909590,-171.068894,-37.415122,11.749447,-67.444877
20.878000,-1.154192,-0.905928,-168.139162,-38.635843,10.360876,-70.801862
20.879000,-1.165942,-0.909438,-165.514611,-38.529030,10.162509,-70.771344
20.880000,-1.165179,-0.909438,-162.264439,-35.187304,7.812619,-69.748989
20.881000,-1.146410,-0.907454,-160.509651,-36.789502,7.019150,-70.542458
20.882000,-1.160296,-0.905165,-158.403906,-37.445640,7.324331,-69.962615
20.883000,-1.156329,-0.899519,-155.550469,-35.797665,7.156481,-67.383841
20.884000,-1.137255,-0.888991,-154.177157,-36.041810,6.088350,-67.353323
20.885000,-1.145953,-0.886854,-152.910658,-37.781338,6.836042,-69.504845
20.886000,-1.140764,-0.881514,-148.638132,-35.797665,8.285649,-68.162051
20.887000,-1.121843,-0.871290,-147.692073,-35.721370,6.256199,-71.015488
20.888000,-1.141985,-0.876020,-149.294270,-35.233082,8.133059,-69.947356
20.889000,-1.157092,-0.874952,-148.683909,-33.142596,9.842069,-68.558785
20.890000,-1.142901,-0.871443,-145.418479,-32.150759,9.735256,-69.413291
20.891000,-1.138628,-0.869306,-145.937285,-33.966583,8.163577,-69.840543
20.892000,-1.130694,-0.870069,-142.641337,-33.691920,9.658961,-68.268864
20.893000,-1.115740,-0.861219,-137.834745,-32.974746,9.079118,-65.781643
20.894000,-1.109026,-0.861372,-137.575341,-32.196536,6.317235,-68.024720
20.895000,-1.098650,-0.854200,-137.010758,-31.250477,9.521630,-66.376745
20.896000,-1.079728,-0.839704,-135.759518,-31.570916,12.008850,-67.963684
20.897000,-1.076677,-0.838331,-132.768750,-33.295186,11.200122,-67.109178
20.898000,-1.096666,-0.843977,-130.571450,-32.059205,15.060655,-64.637217
20.899000,-1.097429,-0.835889,-130.312047,-28.534371,17.502098,-63.218128
20.900000,-1.110094,-0.841688,-130.418860,-29.770352,15.793088,-64.408331
20.901000,-1.112078,-0.844129,-126.695659,-28.320745,17.929351,-63.431754
20.902000,-1.081102,-0.831769,-123.140307,-27.176318,18.921187,-65.430686
20.903000,-1.061570,-0.825055,-121.461814,-28.503853,17.059586,-65.430686
20.904000,-1.071183,-0.823987,-118.471046,-24.628061,19.989319,-64.667735
20.905000,-1.065080,-0.818341,-114.702068,-24.979019,21.118486,-66.971847
20.906000,-1.068132,-0.817273,-114.457923,-26.092927,22.293431,-65.110246
20.907000,-1.077745,-0.820478,-112.520027,-26.810101,24.017700,-65.430686
20.908000,-1.061570,-0.814069,-106.752117,-25.635157,27.161059,-63.904784
20.909000,-1.055924,-0.811322,-104.905776,-26.306554,26.337072,-65.781643
20.910000,-1.066300,-0.814832,-103.273060,-24.719615,27.328908,-63.706416
20.911000,-1.056077,-0.809796,-103.578241,-23.254749,30.960555,-63.965820
20.912000,-1.036698,-0.799268,-105.516136,-24.048219,29.495689,-65.522240
20.913000,-1.043412,-0.802167,-103.349355,-21.652552,28.412299,-62.104219
20.914000,-1.036088,-0.794079,-100.297551,-19.409476,26.474403,-63.141833
20.915000,-1.025101,-0.786297,-100.205997,-18.539712,24.887465,-67.643244
20.916000,-1.022965,-0.786297,-97.779812,-16.662852,26.565957,-65.644312
20.917000,-1.011978,-0.787060,-94.316014,-16.662852,28.671702,-61.402304
20.918000,-0.998550,-0.784161,-93.919280,-17.380026,27.664607,-61.631189
20.919000,-0.999313,-0.780804,-97.077897,-17.608911,26.047150,-60.776684
20.920000,-0.990005,-0.774853,-95.277333,-14.267185,25.116350,-59.571221
20.921000,-0.982681,-0.761883,-93.324178,-15.320058,21.881437,-63.309682
20.922000,-0.996414,-0.769207,-91.584649,-16.418708,23.147936,-64.148928
20.923000,-0.987259,-0.761883,-87.739376,-15.320058,28.015564,-61.890593
20.924000,-0.954910,-0.752880,-85.420005,-16.693370,32.227054,-60.990311
20.925000,-0.956130,-0.753796,-83.299001,-19.653620,30.350195,-59.754330
20.926000,-0.953231,-0.748455,-82.871748,-19.577325,29.587243,-60.944533
20.927000,-0.936141,-0.743114,-83.726253,-20.004578,26.962692,-62.073701
20.928000,-0.935225,-0.744488,-83.604181,-17.944610,24.933242,-63.401236
20.929000,-0.944686,-0.744793,-82.734417,-14.831769,22.827497,-63.065537
20.930000,-0.935836,-0.736858,-83.344778,-13.534752,23.239490,-63.370718
20.931000,-0.937972,-0.738994,-84.412909,-14.236667,24.216068,-62.455177
20.932000,-0.941176,-0.739147,-82.993820,-11.474784,28.778515,-59.555962
20.933000,-0.924849,-0.727092,-81.239033,-11.688411,27.405203,-62.912947
20.934000,-0.928969,-0.730297,-83.588922,-14.938582,26.657511,-63.889525
20.935000,-0.924239,-0.730449,-84.351873,-11.169604,28.351263,-61.570153
20.936000,-0.913405,-0.721141,-81.498436,-11.337453,29.648280,-61.005570
20.937000,-0.907759,-0.722362,-79.041733,-15.533684,28.198672,-59.266041
20.938000,-0.914931,-0.726482,-76.371405,-14.847028,27.496757,-59.128710
20.939000,-0.912184,-0.724193,-72.999161,-14.404517,25.207904,-59.159228
20.940000,-0.922103,-0.721752,-71.168078,-14.206149,20.965896,-59.281300
20.941000,-0.927291,-0.721599,-68.940261,-15.701534,23.620966,-56.183719
20.942000,-0.898146,-0.706950,-67.139696,-14.129854,26.474403,-54.108492
20.943000,-0.886702,-0.702373,-67.841611,-16.052491,26.001373,-52.964065
20.944000,-0.890974,-0.704814,-68.192569,-16.556039,30.548562,-51.880674
20.945000,-0.881666,-0.702525,-64.652476,-15.823606,31.525139,-51.880674
20.946000,-0.881056,-0.703593,-64.621958,-17.151141,29.114214,-54.474708
20.947000,-0.894026,-0.702525,-66.834516,-19.150072,28.259709,-54.474708
20.948000,-0.888991,-0.699016,-64.774548,-18.707561,28.397040,-53.482872
20.949000,-0.881056,-0.696880,-63.904784,-20.065614,28.198672,-53.955901
20.950000,-0.876783,-0.695811,-62.043183,-20.889601,27.344167,-51.194018
20.951000,-0.853590,-0.686656,-61.005570,-19.455253,26.443885,-51.804379
20.952000,-0.834058,-0.674907,-62.180514,-23.132677,23.971923,-53.406577
20.953000,-0.842908,-0.679942,-61.310750,-22.217136,26.092927,-54.932479
20.954000,-0.837720,-0.672923,-60.776684,-20.935378,25.467308,-54.993515
20.955000,-0.838483,-0.669566,-62.226291,-21.301595,22.079805,-55.313954
20.956000,-0.845502,-0.679637,-61.097124,-22.003510,21.560998,-56.519417
20.957000,-0.835279,-0.681010,-56.839857,-23.270008,24.475471,-55.161364
20.958000,-0.818494,-0.677501,-58.808270,-25.635157,21.271077,-55.344472
20.959000,-0.824598,-0.676280,-58.945602,-24.505989,19.867247,-53.543908
20.960000,-0.821851,-0.672313,-53.986419,-22.461280,20.935378,-51.117723
20.961000,-0.808728,-0.663157,-51.834897,-24.689097,20.859083,-54.230564
20.962000,-0.807050,-0.661784,-53.528649,-27.450980,19.394217,-54.764630
20.963000,-0.797436,-0.656901,-52.643626,-23.834592,20.340276,-57.099260
20.964000,-0.777905,-0.649424,-49.240864,-24.185550,19.516289,-59.891661
20.965000,-0.796216,-0.659953,-49.652857,-22.201877,18.234531,-56.748302
20.966000,-0.807355,-0.656443,-49.591821,-17.547875,16.495003,-54.551003
20.967000,-0.793011,-0.652171,-49.881743,-17.837797,15.976196,-59.250782
20.968000,-0.788434,-0.657969,-50.537881,-18.768597,14.587625,-61.448081
20.969000,-0.789349,-0.654459,-46.845197,-19.134813,14.785992,-59.296559
20.970000,-0.773480,-0.645151,-43.366140,-17.914092,13.092241,-59.113451
20.971000,-0.774701,-0.647440,-42.267491,-19.470512,11.352712,-59.632258
20.972000,-0.780499,-0.652323,-42.877852,-18.539712,12.756542,-57.450217
20.973000,-0.782940,-0.639353,-41.168841,-18.570230,11.474784,-60.318914
20.974000,-0.784771,-0.639506,-46.448463,-20.462348,10.788128,-61.448081
20.975000,-0.787518,-0.641794,-46.738384,-20.660716,9.170672,-62.241550
20.976000,-0.758679,-0.628519,-46.311131,-21.072709,10.177768,-59.067674
20.977000,-0.756847,-0.631266,-46.738384,-19.409476,10.467689,-60.929274
20.978000,-0.765545,-0.633707,-46.143282,-19.531548,11.673152,-59.433890
20.979000,-0.755169,-0.631418,-43.823911,-19.623102,9.826810,-59.571221
20.980000,-0.750286,-0.624399,-44.464790,-22.201877,8.621347,-61.036088
20.981000,-0.749523,-0.628824,-42.816815,-24.139773,11.902037,-60.914015
20.982000,-0.735180,-0.622721,-41.107805,-26.169223,11.062791,-60.395209
20.983000,-0.734569,-0.621653,-40.161746,-28.763256,7.553216,-62.363622
20.984000,-0.738537,-0.626230,-40.497444,-30.029755,7.064927,-61.387045
20.985000,-0.737163,-0.620737,-39.826047,-27.969787,7.507439,-62.592508
20.986000,-0.731212,-0.621958,-43.350881,-31.982910,6.622416,-62.989242
20.987000,-0.736553,-0.626383,-46.204318,-33.112078,5.828946,-60.471504
20.988000,-0.723278,-0.618753,-45.258259,-31.876097,3.875792,-59.784848
20.989000,-0.725414,-0.617990,-45.410849,-32.730602,3.143359,-60.624094
20.990000,-0.731365,-0.617380,-45.578698,-34.119173,3.860533,-60.349432
20.991000,-0.711070,-0.608835,-44.708934,-35.049973,3.173877,-61.814298
20.992000,-0.693370,-0.605020,-46.982528,-37.445640,2.014191,-63.355459
20.993000,-0.692302,-0.604868,-49.240864,-36.636912,3.601129,-60.273136
20.994000,-0.662699,-0.590066,-52.048524,-35.095750,7.171740,-60.379950
20.995000,-0.630655,-0.575113,-53.269245,-35.461967,4.715038,-61.966888
20.996000,-0.605173,-0.563973,-51.804379,-35.965515,4.791333,-60.471504
20.997000,-0.584726,-0.552224,-45.716030,-35.477226,6.622416,-57.373922
20.998000,-0.553750,-0.543069,-47.394522,-36.316472,6.012055,-56.488899
20.999000,-0.542763,-0.534524,-49.973297,-34.576944,6.027314,-54.032197
21.000000,-0.516518,-0.516365,-50.186923,-33.554589,4.989700,-53.086137
21.001000,-0.485542,-0.497292,-46.845197,-36.148623,2.914473,-55.146105
21.002000,-0.472724,-0.488289,-45.578698,-37.872892,1.556420,-56.214237
21.003000,-0.442359,-0.465858,-43.533989,-38.574807,5.218585,-55.191882
21.004000,-0.404669,-0.444190,-41.184100,-39.185168,5.569543,-55.436027
21.005000,-0.401312,-0.439765,-37.170977,-39.612421,6.973373,-54.764630
21.006000,-0.394598,-0.429541,-32.455940,-34.561685,5.676356,-52.994583
21.007000,-0.375830,-0.413214,-33.813993,-31.250477,5.737392,-52.323186
21.008000,-0.383307,-0.409857,-36.224918,-31.433585,4.516670,-54.962997
21.009000,-0.372015,-0.394903,-32.227054,-29.633021,3.448539,-54.398413
21.010000,-0.341039,-0.376287,-27.527276,-31.189441,2.243076,-53.513390
21.011000,-0.328222,-0.367590,-28.870069,-32.608530,2.090486,-54.947738
21.012000,-0.326848,-0.371252,-27.344167,-32.837415,3.677424,-51.087205
21.013000,-0.322881,-0.364843,-26.794842,-33.737697,3.189136,-51.300832
21.014000,-0.344091,-0.365454,-29.465171,-37.842374,-0.259403,-49.332418
21.015000,-0.351415,-0.362860,-29.114214,-37.689784,2.822919,-48.432136
21.016000,-0.330053,-0.343481,-28.717479,-36.179141,6.378271,-47.516594
21.017000,-0.309911,-0.328985,-30.869001,-36.118105,7.690547,-45.822843
21.018000,-0.304265,-0.319219,-28.122377,-33.829252,10.742351,-45.578698
21.019000,-0.286717,-0.304875,-26.230259,-32.776379,9.719997,-46.219577
21.020000,-0.281071,-0.290990,-25.436790,-32.379644,7.522698,-50.934615
21.021000,-0.277256,-0.280003,-20.798047,-32.104982,8.911269,-52.384222
21.022000,-0.248112,-0.260319,-15.503166,-31.601434,12.405585,-51.926452
21.023000,-0.233005,-0.247044,-13.824674,-33.081559,9.094377,-54.016938
21.024000,-0.243381,-0.242313,-12.588693,-33.661402,13.412680,-48.676280
21.025000,-0.227665,-0.240940,-8.865492,-32.944228,15.411612,-48.203250
21.026000,-0.239261,-0.253605,-8.255131,-35.431449,13.260090,-48.050660
21.027000,-0.258793,-0.259251,-8.575570,-33.920806,14.694438,-49.652857
21.028000,-0.247959,-0.246281,-7.644770,-32.532235,16.418708,-51.499199
21.029000,-0.230869,-0.242161,-6.286717,-31.815061,15.991455,-55.161364
21.030000,-0.244144,-0.255894,-6.027314,-32.532235,18.249790,-53.147173
21.031000,-0.262150,-0.272526,-5.752651,-32.104982,18.936446,-53.772793
21.032000,-0.276799,-0.294804,-4.791333,-34.332799,16.937514,-52.826734
21.033000,-0.315099,-0.322881,-2.197299,-32.196536,14.740215,-52.872511
21.034000,-0.338750,-0.332647,-0.183108,-31.769284,12.466621,-51.880674
21.035000,-0.351415,-0.344701,-4.440375,-34.760052,10.467689,-53.528649
21.036000,-0.381018,-0.361486,-7.888914,-34.302281,9.246967,-51.850156
21.037000,-0.386053,-0.363622,-3.707942,-32.074464,12.451362,-48.142214
21.038000,-0.389410,-0.367437,-2.121004,-32.776379,11.703670,-50.782025
21.039000,-0.416114,-0.386664,-1.998932,-32.928969,12.039368,-50.873579
21.040000,-0.415198,-0.400855,-0.610361,-34.195468,11.123827,-50.171664
21.041000,-0.407263,-0.404364,1.678492,-34.302281,8.133059,-50.232700
21.042000,-0.397955,-0.403296,1.449607,-33.524071,8.911269,-50.720989
21.043000,-0.374151,-0.401312,2.151522,-32.990005,11.841001,-51.483940
21.044000,-0.344091,-0.393683,4.486152,-34.073396,14.160372,-52.124819
21.045000,-0.341192,-0.387884,5.249104,-36.163882,14.770733,-52.170596
21.046000,-0.309606,-0.367895,9.719997,-34.729534,15.915160,-47.440299
21.047000,-0.252384,-0.350805,11.017014,-33.417258,13.061723,-49.195087
21.048000,-0.219120,-0.340276,11.566339,-33.554589,14.267185,-48.722057
21.049000,-0.179904,-0.331426,13.763638,-32.806897,18.295567,-46.417945
21.050000,-0.128939,-0.312810,16.662852,-32.089723,19.943542,-46.814679
21.051000,-0.111391,-0.307012,15.030137,-34.851606,19.165332,-45.029374
21.052000,-0.103761,-0.298466,17.090105,-34.775311,21.087968,-44.480049
21.053000,-0.086519,-0.289464,18.127718,-36.133364,21.286336,-45.685512
21.054000,-0.086671,-0.297093,17.441062,-37.476158,19.958801,-45.502403
21.055000,-0.099184,-0.306096,19.897765,-32.028687,22.720684,-44.220645
21.056000,-0.098268,-0.303197,24.048219,-32.227054,22.873274,-45.349813
21.057000,-0.131685,-0.314183,26.733806,-33.417258,20.187686,-41.062028
21.058000,-0.167849,-0.327916,28.534371,-31.952392,23.422599,-39.826047
21.059000,-0.182345,-0.340124,26.245518,-32.776379,25.360494,-41.031510
21.060000,-0.214237,-0.361791,26.031891,-33.157855,21.072709,-40.741588
21.061000,-0.268254,-0.389258,29.694057,-33.981842,18.631266,-39.185168
21.062000,-0.336309,-0.413062,33.340963,-34.256504,18.905928,-41.138323
21.063000,-0.413519,-0.452277,32.944228,-36.285954,16.510262,-43.076219
21.064000,-0.490730,-0.480964,35.004196,-32.562753,18.173495,-40.817884
21.065000,-0.517586,-0.493019,39.383536,-30.685893,16.678111,-40.772107
21.066000,-0.542306,-0.507515,37.033646,-29.877165,13.580529,-42.999924
21.067000,-0.572366,-0.520333,33.005264,-29.190509,12.603952,-41.184100
21.068000,-0.590829,-0.523537,30.930037,-29.175250,16.052491,-42.603189
21.069000,-0.622263,-0.536202,29.922942,-28.290227,15.381094,-47.196155
21.070000,-0.658579,-0.552682,29.083696,-27.695125,14.785992,-43.701839
21.071000,-0.681163,-0.555123,30.701152,-26.840620,14.099336,-43.015183
21.072000,-0.682078,-0.553750,28.931106,-30.106050,11.749447,-45.075151
21.073000,-0.681468,-0.554513,28.320745,-30.212863,14.160372,-44.113832
21.074000,-0.649424,-0.540627,31.876097,-27.206836,14.175631,-43.366140
21.075000,-0.618296,-0.528115,31.616693,-28.305486,13.214313,-44.007019
21.076000,-0.626841,-0.536355,30.350195,-26.794842,11.932555,-40.283818
21.077000,-0.616617,-0.542916,30.624857,-24.429694,13.153277,-38.178073
21.078000,-0.612802,-0.544747,29.007401,-24.109255,13.046464,-38.315404
21.079000,-0.615702,-0.554360,27.985046,-23.102159,14.923323,-39.963378
21.080000,-0.610513,-0.550240,27.664607,-21.759365,14.969100,-40.955215
21.081000,-0.601968,-0.547036,26.565957,-20.096132,14.267185,-41.565576
21.082000,-0.600137,-0.550698,27.603571,-21.164263,15.808347,-41.428244
21.083000,-0.587015,-0.548714,26.749065,-20.737011,14.801251,-38.666361
21.084000,-0.562448,-0.546731,26.840620,-23.208972,15.701534,-39.215686
21.085000,-0.577859,-0.554513,26.916915,-24.795911,18.616007,-37.842374
21.086000,-0.587320,-0.561532,30.930037,-22.064546,18.036164,-37.781338
21.087000,-0.578317,-0.562448,31.570916,-20.859083,13.641566,-36.728466
21.088000,-0.591897,-0.568093,29.068437,-22.919051,13.733120,-35.217823
21.089000,-0.601053,-0.573587,29.922942,-22.629129,14.557107,-33.188373
21.090000,-0.602579,-0.570993,31.052110,-22.964828,15.396353,-32.806897
21.091000,-0.608072,-0.573587,27.817197,-24.475471,16.769665,-33.112078
21.092000,-0.614786,-0.578317,26.016632,-23.483635,17.624170,-33.676661
21.093000,-0.598764,-0.566110,29.022660,-21.622034,17.578393,-36.087587
21.094000,-0.605325,-0.566567,27.542535,-22.568093,16.403449,-35.202564
21.095000,-0.612192,-0.566567,27.664607,-19.745174,15.884642,-34.912642
21.096000,-0.596170,-0.557870,30.365454,-20.157168,15.365835,-34.088655
21.097000,-0.605173,-0.558785,31.708248,-20.630198,15.289540,-35.645075
21.098000,-0.608988,-0.561379,30.792706,-18.814374,16.495003,-34.668498
21.099000,-0.578775,-0.549477,32.089723,-18.127718,17.532616,-34.042878
21.100000,-0.581979,-0.550088,30.960555,-19.562066,14.389258,-33.539330
21.101000,-0.590066,-0.552224,33.096818,-19.089036,13.946746,-28.595407
21.102000,-0.574044,-0.536965,36.026551,-20.126650,12.588693,-29.129473
21.103000,-0.552834,-0.535592,34.073396,-21.789883,12.619211,-30.609598
21.104000,-0.559548,-0.540475,36.896315,-21.377890,16.098268,-29.144732
21.105000,-0.539712,-0.532998,42.175937,-18.905928,14.969100,-30.380713
21.106000,-0.529030,-0.528267,42.084382,-21.103227,10.955978,-32.196536
21.107000,-0.542000,-0.531624,44.495308,-19.714656,12.542916,-31.448844
21.108000,-0.534981,-0.521401,42.877852,-19.256886,10.605020,-29.892424
21.109000,-0.537423,-0.515602,42.038605,-19.546807,8.560311,-30.029755
21.110000,-0.537270,-0.518196,41.031510,-20.492866,9.018082,-30.121309
21.111000,-0.536507,-0.518044,40.207523,-21.789883,8.941787,-30.197604
21.112000,-0.544900,-0.515602,40.344854,-20.782788,7.721065,-29.633021
21.113000,-0.558480,-0.519112,40.817884,-18.265049,8.422980,-26.001373
21.114000,-0.555581,-0.517739,39.658198,-14.465553,5.844205,-26.306554
21.115000,-0.543221,-0.514839,38.773175,-15.915160,3.097581,-29.236286
21.116000,-0.556344,-0.518196,38.757916,-17.120623,1.480125,-29.755093
21.117000,-0.544594,-0.506600,41.260395,-16.067750,-0.503548,-27.679866
21.118000,-0.537118,-0.498360,42.236973,-15.182727,-0.976577,-27.191577
21.119000,-0.541390,-0.500038,40.115969,-17.074846,0.900282,-25.345235
21.120000,-0.542306,-0.497902,40.436408,-16.861219,0.839246,-25.650416
21.121000,-0.529030,-0.491798,42.481117,-20.843824,-1.037613,-25.391012
21.122000,-0.536812,-0.491341,45.838102,-22.613870,-0.442512,-23.117418
21.123000,-0.538949,-0.488899,49.668116,-19.501030,3.158618,-21.896696
21.124000,-0.515297,-0.480507,52.704662,-20.614939,4.348821,-21.835660
21.125000,-0.522164,-0.484321,51.636530,-20.889601,1.892119,-21.896696
21.126000,-0.511635,-0.473030,51.102464,-19.577325,-1.266499,-23.880369
21.127000,-0.467079,-0.452735,50.156405,-19.836728,-3.494316,-25.528344
21.128000,-0.432288,-0.434730,47.394522,-18.722820,-3.067063,-25.131609
21.129000,-0.383764,-0.407721,47.730220,-17.517357,-1.663233,-23.743038
21.130000,-0.309300,-0.365606,47.455558,-17.929351,-1.663233,-23.147936
21.131000,-0.218051,-0.313878,46.082246,-18.509194,-4.852369,-24.383917
21.132000,-0.108339,-0.248264,49.011978,-18.310826,-2.319371,-20.981155
21.133000,0.049897,-0.156100,51.911192,-19.699397,-1.800565,-20.752270
21.134000,0.229496,-0.049592,49.835966,-22.720684,-2.944991,-18.036164
21.135000,0.409400,0.075685,52.674144,-19.943542,-0.137331,-14.572366
21.136000,0.590677,0.219730,57.557031,-18.219272,1.998932,-13.275349
21.137000,0.747082,0.368963,61.676967,-18.966964,6.240940,-12.619211
21.138000,0.892653,0.516365,66.575113,-18.188754,10.360876,-7.385367
21.139000,1.072251,0.704356,72.114137,-14.312963,15.869383,-6.591897
21.140000,1.289387,0.924239,77.897307,-12.359808,23.376822,-5.874723
21.141000,1.562371,1.182879,83.741512,-8.133059,35.172045,-3.219654
21.142000,1.908446,1.512322,94.880598,-1.235981,45.288777,-2.944991
21.143000,2.306096,1.852903,106.157015,2.197299,54.535744,0.396735
21.144000,2.743114,2.174258,122.102693,7.415885,70.222019,8.239872
21.145000,3.161822,2.430762,141.527428,11.612116,83.527886,11.795224
21.146000,3.457237,2.589456,159.121080,16.723888,91.004807,15.503166
21.147000,3.633326,2.679332,177.080949,27.817197,106.355383,20.828565
21.148000,3.794308,2.767071,200.869764,42.038605,125.413901,26.489662
21.149000,3.974670,2.875105,224.307622,51.651789,144.518196,36.011292
21.150000,4.185702,2.964218,250.736248,62.806134,165.789273,45.777066
21.151000,4.369574,3.018997,278.873884,77.470054,184.023804,54.093233
21.152000,4.403906,2.971237,302.235447,89.417868,204.043641,59.067674
21.153000,4.339971,2.868391,323.186084,99.229419,222.140841,67.078660
21.154000,4.220493,2.749981,346.715496,108.857862,237.659266,68.848707
21.155000,4.059815,2.612650,366.140230,116.914626,251.697566,71.900511
21.156000,3.811704,2.441749,386.343175,126.283665,265.278096,78.126192
21.157000,3.517510,2.266728,406.301976,135.545892,280.064088,81.635767
21.158000,3.125811,2.044556,421.576257,141.756313,284.473945,82.871748
21.159000,2.700694,1.787442,434.958419,145.082780,288.349737,83.817807
21.160000,2.303807,1.510491,450.339513,150.759136,292.652781,83.970397
21.161000,1.849241,1.165484,464.499886,153.612573,294.392309,83.558404
21.162000,1.301442,0.778973,476.478218,156.878004,300.465400,88.288701
21.163000,0.708324,0.423896,486.228733,160.845350,301.396201,89.692531
21.164000,0.216831,0.164645,491.584649,162.584878,296.818494,89.936675
21.165000,-0.248722,-0.105135,488.120851,157.701991,286.503395,84.718090
21.166000,-0.811933,-0.469215,475.806821,148.607614,266.956588,76.523995
21.167000,-1.367819,-0.880903,448.706798,137.453269,238.757916,65.583276
21.168000,-1.939269,-1.281147,416.449226,124.116884,212.054627,55.436027
21.169000,-2.391699,-1.565118,384.039063,113.298238,187.258717,49.271382
21.170000,-2.692454,-1.742580,353.215839,101.319905,163.881895,40.009155
21.171000,-2.904860,-1.878080,325.108721,90.074006,140.627146,31.921874
21.172000,-3.098497,-2.040894,298.863203,77.607385,114.869917,25.284199
21.173000,-3.306020,-2.214237,269.810025,61.661707,86.823835,16.754406
21.174000,-3.449454,-2.349889,235.584039,46.250095,60.440986,10.406653
21.175000,-3.489891,-2.427710,202.761883,34.943160,38.101778,4.119936
21.176000,-3.468528,-2.453651,172.396429,23.331044,15.259022,-0.961318
21.177000,-3.382010,-2.425269,146.898604,11.856260,-2.838178,-5.447471
21.178000,-3.203632,-2.328679,126.314183,6.897078,-17.090105,-9.140154
21.179000,-2.944381,-2.179751,106.370642,-0.473030,-31.876097,-16.784924
21.180000,-2.659953,-2.016938,90.363928,-8.987564,-44.266423,-20.141909
21.181000,-2.365454,-1.852140,81.651026,-14.297704,-52.735180,-20.309758
21.182000,-2.057832,-1.687037,75.028611,-17.151141,-58.381018,-19.623102
21.183000,-1.779660,-1.531548,64.972915,-23.498894,-58.976120,-21.927214
21.184000,-1.544060,-1.387961,60.227359,-25.116350,-57.236591,-19.516289
21.185000,-1.313802,-1.235370,57.343404,-26.337072,-56.366827,-20.859083
21.186000,-1.115892,-1.085374,52.506294,-27.435721,-60.791943,-20.508125
21.187000,-0.965133,-0.945144,50.324254,-25.589380,-60.761425,-18.371862
21.188000,-0.813458,-0.795911,50.232700,-24.795911,-59.235523,-20.447089
21.189000,-0.666819,-0.642405,51.514458,-26.871138,-56.565194,-21.911955
21.190000,-0.539406,-0.495308,54.749371,-25.787747,-45.853361,-19.272145
21.191000,-0.402838,-0.348669,63.279164,-20.218204,-37.674525,-17.502098
21.192000,-0.292515,-0.220493,73.655299,-14.892805,-29.861906,-16.784924
21.193000,-0.226291,-0.130465,81.940948,-8.590829,-21.942473,-10.910201
21.194000,-0.175174,-0.050965,85.603113,-5.371176,-20.141909,-9.216449
21.195000,-0.134585,-0.003815,81.544213,-6.927596,-26.398108,-12.664988
21.196000,-0.122225,0.013428,77.637903,-10.467689,-32.654307,-13.855192
21.197000,-0.110170,0.017548,75.455863,-10.131991,-35.065232,-14.221408
21.198000,-0.121004,-0.003815,67.109178,-11.764706,-43.564508,-17.425803
21.199000,-0.171359,-0.052033,57.084001,-17.029068,-52.582589,-17.807279
21.200000,-0.205997,-0.098573,49.698634,-19.714656,-59.342336,-19.989319
21.201000,-0.226596,-0.150149,41.016251,-22.552834,-68.207828,-24.475471
21.202000,-0.270695,-0.211490,33.615625,-25.680934,-74.921798,-26.260777
21.203000,-0.294652,-0.252842,26.596475,-27.634089,-78.690776,-28.870069
21.204000,-0.310369,-0.285191,23.361563,-29.571984,-83.741512,-29.617762
21.205000,-0.336156,-0.321202,18.768597,-32.059205,-88.273442,-30.151827
21.206000,-0.344091,-0.338598,14.984360,-32.120241,-90.150301,-30.411231
21.207000,-0.331579,-0.333104,11.337453,-32.730602,-94.239719,-32.318608
21.208000,-0.320134,-0.322423,6.256199,-34.775311,-96.818494,-32.242313
21.209000,-0.304112,-0.295567,5.279622,-30.624857,-96.757458,-32.059205
21.210000,-0.261692,-0.256962,6.561379,-29.388876,-93.797208,-31.647211
21.211000,-0.238193,-0.228733,6.775006,-29.846647,-93.156329,-31.219959
21.212000,-0.210575,-0.192874,5.828946,-29.541466,-91.157397,-28.732738
21.213000,-0.168154,-0.150912,4.821851,-30.624857,-91.996643,-30.457008
21.214000,-0.144656,-0.118410,2.609293,-30.411231,-92.408637,-32.700084
21.215000,-0.124056,-0.096437,5.493248,-24.719615,-88.029297,-31.128405
21.216000,-0.100252,-0.076143,7.186999,-24.902724,-85.740444,-29.526207
21.217000,-0.099947,-0.071260,9.857328,-26.993210,-84.031434,-24.505989
21.218000,-0.103609,-0.073854,9.689479,-25.619898,-79.850462,-23.178454
21.219000,-0.087587,-0.071260,10.910201,-23.529412,-78.141451,-24.292363
21.220000,-0.096437,-0.085908,8.133059,-24.307622,-80.048829,-25.223163
21.221000,-0.112306,-0.102083,6.027314,-22.156100,-78.629740,-22.629129
21.222000,-0.094148,-0.110170,7.202258,-20.920119,-75.333791,-22.766461
21.223000,-0.084077,-0.124971,7.293812,-21.530480,-75.852598,-23.224231
21.224000,-0.087892,-0.140078,5.615320,-20.325017,-75.318532,-19.897765
21.225000,-0.067140,-0.139620,8.621347,-21.850919,-76.554513,-21.957733
21.226000,-0.060731,-0.137636,8.453498,-23.483635,-81.895171,-18.982223
21.227000,-0.068208,-0.137942,5.462730,-24.078737,-84.214542,-20.340276
21.228000,-0.057374,-0.125124,3.967346,-20.920119,-83.161669,-22.690166
21.229000,-0.043183,-0.109407,-0.091554,-23.971923,-85.694667,-23.071641
21.230000,-0.043641,-0.102388,-0.991836,-22.705425,-83.756771,-21.927214
21.231000,-0.023804,-0.078431,-0.549325,-23.514153,-83.390555,-21.087968
21.232000,-0.009308,-0.060883,-2.517739,-25.650416,-88.258183,-22.888533
21.233000,0.002747,-0.044099,-5.432212,-25.879301,-87.098497,-19.836728
21.234000,0.041199,-0.020294,-3.143359,-24.231327,-86.106661,-19.272145
21.235000,0.066835,0.000000,-4.654002,-21.286336,-87.174792,-17.868315
21.236000,0.069886,0.005188,-4.058900,-20.233463,-84.809644,-15.686275
21.237000,0.079194,0.014343,0.625620,-19.073777,-84.016175,-13.427939
21.238000,0.080262,0.022126,-2.288853,-19.562066,-82.963302,-12.710765
21.239000,0.075685,0.011749,-0.610361,-18.753338,-78.141451,-11.276417
21.240000,0.089418,0.016785,-0.381476,-19.073777,-74.311437,-12.588693
21.241000,0.109712,0.022736,0.473030,-21.393149,-77.531090,-16.983291
21.242000,0.098268,0.019837,1.998932,-22.430762,-77.347982,-21.454185
21.243000,0.114137,0.017243,3.219654,-21.560998,-74.860761,-19.531548
21.244000,0.128328,0.022278,6.256199,-22.140841,-74.784466,-16.845960
21.245000,0.120089,0.016022,9.933623,-22.415503,-71.580072,-15.808347
21.246000,0.132448,0.015869,10.742351,-20.950637,-69.367514,-16.861219
21.247000,0.149386,0.029755,8.667124,-20.355535,-70.740826,-16.601816
21.248000,0.157168,0.031739,4.516670,-19.974060,-73.380636,-17.517357
21.249000,0.168460,0.041657,2.532998,-18.158236,-73.685817,-17.029068
21.250000,0.189212,0.060121,4.180972,-17.944610,-70.328832,-16.784924
21.251000,0.196536,0.067445,1.632715,-17.227436,-68.467231,-18.585489
21.252000,0.216220,0.080415,3.753719,-16.388190,-64.759289,-17.608911
21.253000,0.246738,0.098116,4.303044,-17.151141,-66.514076,-18.081941
21.254000,0.249332,0.104982,0.228885,-16.693370,-70.450904,-18.051423
21.255000,0.251011,0.114595,1.358053,-14.419776,-71.427481,-14.419776
21.256000,0.275120,0.129244,1.892119,-15.762570,-67.872129,-15.213245
21.257000,0.280766,0.133822,3.234913,-16.998550,-65.842679,-13.382162
21.258000,0.284123,0.137331,3.707942,-14.679179,-63.675898,-9.048600
21.259000,0.307012,0.155337,4.272526,-13.351644,-63.050278,-11.047532
21.260000,0.317388,0.161440,4.348821,-13.000687,-64.591440,-11.978332
21.261000,0.321202,0.166934,6.805524,-10.040436,-65.323873,-10.254063
21.262000,0.332036,0.177462,8.773938,-10.360876,-65.033951,-11.581598
21.263000,0.337377,0.179599,10.315099,-10.543984,-66.178378,-15.106432
21.264000,0.337835,0.183566,12.848096,-8.560311,-64.942397,-15.991455
21.265000,0.350042,0.193790,13.824674,-8.972305,-63.889525,-15.350576
21.266000,0.364385,0.204166,12.909133,-13.138018,-64.393072,-13.824674
21.267000,0.353857,0.209354,13.778897,-10.971237,-63.721675,-10.620279
21.268000,0.384070,0.226902,15.136950,-9.201190,-62.256809,-10.925460
21.269000,0.398260,0.238499,15.091173,-10.360876,-61.646448,-12.252995
21.270000,0.404059,0.245060,15.182727,-11.245899,-57.709621,-12.314031
21.271000,0.426490,0.258335,15.640497,-11.078050,-54.062715,-10.574502
21.272000,0.449378,0.275425,13.855192,-9.536889,-53.818570,-12.207218
21.273000,0.451972,0.284276,12.268254,-10.955978,-53.604944,-11.459525
21.274000,0.461433,0.297704,11.352712,-9.124895,-54.230564,-12.756542
21.275000,0.473335,0.308690,12.314031,-9.704738,-56.137942,-13.260090
21.276000,0.476387,0.312352,13.122759,-9.277485,-54.474708,-10.986496
21.277000,0.493019,0.327306,16.800183,-6.622416,-49.332418,-7.888914
21.278000,0.508736,0.343633,15.762570,-6.347753,-48.859388,-8.758679
21.279000,0.505837,0.349889,14.511330,-8.178836,-47.074083,-8.438239
21.280000,0.529641,0.365759,14.206149,-6.729229,-48.767834,-6.561379
21.281000,0.554208,0.383154,11.322194,-7.110704,-49.774929,-7.354849
21.282000,0.553445,0.385290,8.316167,-7.751583,-49.027237,-8.651865
21.283000,0.568551,0.395972,8.712902,-4.364080,-46.906233,-5.859464
21.284000,0.599527,0.416419,8.163577,-3.570611,-45.716030,-3.845274
21.285000,0.609445,0.422370,7.598993,-3.723201,-44.556344,-3.585870
21.286000,0.621653,0.435340,11.184863,-3.830014,-44.449531,-4.409857
21.287000,0.644541,0.449378,12.497139,-3.128099,-46.707866,-1.571679
21.288000,0.656443,0.462043,9.323262,-1.861601,-47.180896,-3.372244
21.289000,0.663462,0.474098,8.728161,-0.869764,-45.090410,-3.143359
21.290000,0.675059,0.486305,6.530861,-0.564584,-41.000992,-3.997864
21.291000,0.683757,0.499428,2.166781,-0.244144,-40.024414,-2.975509
21.292000,0.708324,0.517281,0.274662,1.892119,-38.590066,0.000000
21.293000,0.753491,0.542306,1.739528,2.655070,-39.719234,0.869764
21.294000,0.765850,0.557412,-0.534066,1.083391,-40.268559,1.785306
21.295000,0.774243,0.573739,-2.929732,3.234913,-38.803693,3.463798
21.296000,0.794385,0.590829,-3.067063,4.760815,-39.032578,3.768978
21.297000,0.795148,0.597391,-4.394598,4.211490,-37.750820,7.354849
21.298000,0.794232,0.607156,-6.103609,3.494316,-31.967651,10.360876
21.299000,0.826276,0.636149,-8.728161,2.441444,-30.807965,10.269322
21.300000,0.852979,0.642863,-11.062791,-1.144427,-29.892424,6.698711
21.301000,0.873426,0.655680,-12.375067,-2.059968,-28.885328,9.246967
21.302000,0.893416,0.681163,-12.558175,-2.761883,-28.656443,6.576638
21.303000,0.905013,0.693828,-14.297704,-2.868696,-29.877165,4.242008
21.304000,0.915846,0.698558,-12.130922,-0.076295,-27.328908,7.675288
21.305000,0.939193,0.721141,-11.276417,2.105745,-27.389944,10.238804
21.306000,0.945296,0.732738,-12.771801,1.846342,-26.169223,13.443198
21.307000,0.965133,0.744488,-14.373999,2.059968,-22.262913,14.923323
21.308000,0.989853,0.770123,-15.777829,3.570611,-20.645457,14.618143
21.309000,1.013809,0.792096,-17.914092,1.617456,-22.980087,12.558175
21.310000,1.029068,0.802930,-15.884642,2.563516,-20.202945,10.254063
21.311000,1.061418,0.829480,-14.038300,3.204395,-18.173495,9.353780
21.312000,1.079728,0.844587,-17.334249,3.356985,-18.387121,10.147250
21.313000,1.091783,0.857710,-20.218204,4.043641,-14.007782,16.021973
21.314000,1.133440,0.876631,-19.989319,6.164645,-12.893874,19.684138
21.315000,1.162585,0.902571,-21.805142,5.630579,-15.854124,17.914092
21.316000,1.175097,0.912947,-24.124514,9.369039,-14.206149,21.042191
21.317000,1.213855,0.934768,-21.408408,13.733120,-13.076982,22.201877
21.318000,1.239033,0.954299,-23.895628,15.487907,-12.695506,21.164263
21.319000,1.243153,0.964370,-23.422599,16.571298,-11.276417,21.835660
21.320000,1.276875,0.985733,-22.476539,17.563134,-6.836042,18.677043
21.321000,1.308766,1.010452,-24.933242,17.059586,-2.441444,15.838865
21.322000,1.315023,1.029374,-23.880369,17.044327,-0.839246,17.151141
21.323000,1.343404,1.048753,-19.913024,18.631266,0.869764,20.202945
21.324000,1.384298,1.070878,-16.159304,19.485771,0.000000,21.484703
21.325000,1.399863,1.087053,-12.863355,20.813306,0.564584,23.025864
21.326000,1.430991,1.110094,-11.367971,23.529412,2.380407,24.124514
21.327000,1.465782,1.139391,-11.688411,26.367590,1.541161,25.146868
21.328000,1.480583,1.150683,-13.199054,28.259709,1.632715,28.961624
21.329000,1.500572,1.169299,-10.101472,28.229191,5.508507,32.349126
21.330000,1.532921,1.190814,-6.790265,25.238422,6.179904,31.311513
21.331000,1.543908,1.202716,-8.987564,24.383917,6.454566,33.798734
21.332000,1.562676,1.219959,-7.797360,25.574121,8.606088,34.729534
21.333000,1.605249,1.248951,-7.248035,25.284199,8.377203,30.380713
21.334000,1.621118,1.264363,-10.406653,26.901656,7.629511,26.810101
21.335000,1.644465,1.284962,-10.864424,28.076600,10.772869,28.900587
21.336000,1.682612,1.311666,-7.919432,27.756161,12.680247,32.028687
21.337000,1.702449,1.324788,-4.913405,27.588312,16.845960,35.263600
21.338000,1.714504,1.340963,-2.700847,31.601434,18.570230,37.109941
21.339000,1.751125,1.363241,0.167849,34.485389,19.897765,38.757916
21.340000,1.765927,1.376822,2.594034,34.393835,19.302663,39.490349
21.341000,1.778592,1.391928,8.880751,34.760052,19.317922,41.824979
21.342000,1.817350,1.415579,14.755474,35.217823,20.309758,44.129091
21.343000,1.841611,1.431601,11.917296,31.586175,23.056382,44.800488
21.344000,1.864652,1.439689,11.795224,31.235218,28.870069,46.082246
21.345000,1.895933,1.461204,15.197986,32.318608,30.762188,48.004883
21.346000,1.898222,1.473716,14.999619,32.562753,27.267872,48.401617
21.347000,1.897917,1.478141,17.853056,32.181277,28.351263,49.973297
21.348000,1.928435,1.496300,21.759365,31.876097,32.043946,49.073014
21.349000,1.945373,1.507134,22.446021,30.365454,31.097887,49.912261
21.350000,1.944152,1.516899,22.491798,31.860838,36.148623,52.613107
21.351000,1.968414,1.532464,24.521248,32.669566,38.117037,55.878538
21.352000,1.990997,1.546044,25.589380,32.303349,36.682689,57.358663
21.353000,2.006867,1.553216,25.864042,34.134432,38.483253,59.296559
21.354000,2.035096,1.571069,24.200809,37.338827,39.307240,59.494926
21.355000,2.049897,1.580835,20.233463,37.567712,38.803693,60.074769
21.356000,2.047608,1.582666,18.753338,38.071260,42.954147,61.966888
21.357000,2.064088,1.593957,22.171359,37.399863,44.693675,64.988174
21.358000,2.076448,1.600824,21.118486,35.828183,47.623407,63.584344
21.359000,2.070344,1.602655,21.744106,36.881056,47.867552,66.987106
21.360000,2.077363,1.612573,20.859083,40.970474,46.692607,66.544594
21.361000,2.099336,1.619440,18.783856,38.040742,45.273518,66.590372
21.362000,2.093690,1.621576,17.746242,37.582971,45.243000,65.903716
21.363000,2.097353,1.627070,18.371862,40.970474,47.867552,67.139696
21.364000,2.114748,1.634699,20.157168,39.642939,48.401617,66.315709
21.365000,2.104982,1.624170,18.432898,38.666361,50.370031,68.726635
21.366000,2.102388,1.620813,20.096132,42.206455,54.734112,69.626917
21.367000,2.100252,1.622339,18.204013,42.877852,53.055619,64.408331
21.368000,2.090028,1.613794,18.142977,41.687648,53.147173,63.828489
21.369000,2.070344,1.608759,19.302663,42.465858,55.161364,66.803998
21.370000,2.076600,1.609827,20.325017,42.008087,57.282368,66.269932
21.371000,2.051118,1.593500,23.117418,40.848402,58.274205,65.354391
21.372000,2.029450,1.579614,25.818265,43.213550,61.676967,69.275959
21.373000,2.014954,1.570764,26.947433,44.831006,60.440986,68.390936
21.374000,1.984131,1.551995,21.744106,47.043565,59.250782,70.206760
21.375000,1.961395,1.535363,23.285267,46.677348,61.295491,69.275959
21.376000,1.955749,1.518883,27.786679,45.532921,60.807202,69.169146
21.377000,1.918364,1.492638,32.196536,42.603189,62.760357,70.862898
21.378000,1.877928,1.468070,37.766079,41.886015,62.561990,67.811093
21.379000,1.837644,1.446555,41.916533,42.221714,62.623026,68.162051
21.380000,1.787747,1.414817,44.022278,39.078355,61.432822,66.407263
21.381000,1.729915,1.374228,47.760739,40.192264,63.523308,70.862898
21.382000,1.703517,1.349355,50.034333,42.069123,61.081865,71.549554
21.383000,1.658198,1.313344,51.590753,40.329595,57.190814,70.222019
21.384000,1.589837,1.271687,55.359731,40.238041,60.028992,73.899443
21.385000,1.540246,1.236286,56.672007,40.085451,61.768521,72.129397
21.386000,1.481193,1.192950,54.322118,36.957351,56.733043,70.786603
21.387000,1.413748,1.145953,54.291600,36.896315,58.014801,70.984970
21.388000,1.352255,1.100481,56.595712,38.315404,59.327077,71.686885
21.389000,1.292439,1.053941,57.434958,34.973678,56.137942,68.711376
21.390000,1.212482,0.998550,60.471504,35.858701,56.839857,70.771344
21.391000,1.163348,0.954910,61.707485,37.018387,56.214237,69.352255
21.392000,1.099260,0.905165,57.953765,33.112078,50.064851,68.451972
21.393000,1.022354,0.851301,55.863279,32.440681,47.013046,71.854734
21.394000,0.952010,0.801404,59.250782,34.042878,42.328527,73.289082
21.395000,0.887312,0.752575,61.188678,30.731670,37.735561,71.992065
21.396000,0.806744,0.685740,63.416495,30.960555,38.361181,70.908675
21.397000,0.746166,0.638132,69.306477,30.884260,39.734493,72.617685
21.398000,0.680400,0.584878,68.574044,29.877165,39.200427,71.686885
21.399000,0.595865,0.524147,66.071565,28.030823,39.475090,71.885252
21.400000,0.528573,0.474556,68.558785,28.671702,38.651102,74.738689
21.401000,0.462959,0.419318,70.557717,24.917983,37.186236,76.462959
21.402000,0.380255,0.360876,72.083619,24.093996,34.546426,76.997024
21.403000,0.328222,0.313420,73.624781,24.673838,30.350195,79.270619
21.404000,0.276646,0.265507,73.517967,23.514153,27.924010,77.668421
21.405000,0.212100,0.212253,74.799725,21.194781,27.100023,78.004120
21.406000,0.138705,0.158694,76.020447,21.149004,24.536507,76.050965
21.407000,0.086824,0.120394,75.883116,21.179522,19.134813,74.937057
21.408000,0.018616,0.060121,74.204623,18.738079,16.662852,73.075456
21.409000,-0.049744,0.010986,79.316396,16.784924,17.624170,72.068360
21.410000,-0.094453,-0.025177,77.714199,13.275349,16.113527,70.664530
21.411000,-0.155032,-0.073854,76.096742,10.559243,11.245899,70.344091
21.412000,-0.213779,-0.118257,77.515831,9.628443,13.595789,73.746853
21.413000,-0.258335,-0.158083,75.959411,7.858396,13.717861,73.792630
21.414000,-0.314183,-0.204013,72.983902,4.806592,11.688411,74.219883
21.415000,-0.363470,-0.248264,72.968643,3.524834,8.255131,74.387732
21.416000,-0.397650,-0.277714,73.426413,4.119936,4.745556,72.953384
21.417000,-0.449683,-0.316625,71.259632,2.258335,5.157549,69.916838
21.418000,-0.504616,-0.356451,71.656367,1.709010,4.409857,69.062333
21.419000,-0.527962,-0.378729,72.465095,2.349889,-0.137331,70.160983
21.420000,-0.578012,-0.417334,69.169146,0.076295,-5.249104,69.367514
21.421000,-0.635843,-0.450141,71.168078,-1.327535,-7.766842,73.426413
21.422000,-0.669261,-0.480659,74.586099,-3.891051,-8.346685,72.144656
21.423000,-0.707713,-0.508431,72.495613,-5.462730,-10.742351,68.497749
21.424000,-0.734112,-0.532387,73.929961,-5.493248,-7.415885,68.925002
21.425000,-0.748913,-0.549477,75.608453,-5.966278,-4.592966,70.710307
21.426000,-0.778668,-0.573739,72.724498,-6.836042,-6.485084,69.459068
21.427000,-0.810559,-0.601663,72.175174,-7.751583,-10.070954,70.557717
21.428000,-0.833906,-0.614939,73.167010,-5.951019,-10.971237,71.046006
21.429000,-0.854963,-0.637064,71.793698,-5.355917,-16.250858,70.435645
21.430000,-0.892195,-0.657969,73.212787,-6.256199,-16.662852,71.717403
21.431000,-0.906538,-0.671244,72.571908,-8.987564,-16.891737,72.968643
21.432000,-0.919814,-0.683909,68.970779,-10.467689,-20.080873,70.603494
21.433000,-0.949722,-0.701915,68.375677,-10.864424,-19.272145,74.586099
21.434000,-0.955520,-0.708629,66.483558,-8.239872,-21.393149,74.402991
21.435000,-0.961013,-0.720989,60.471504,-9.292744,-24.536507,76.356146
21.436000,-0.983444,-0.739147,54.932479,-10.879683,-23.270008,76.783398
21.437000,-0.989700,-0.743725,55.924315,-8.209354,-19.516289,78.828107
21.438000,-0.991226,-0.745556,55.558099,-10.360876,-19.974060,76.661326
21.439000,-1.014115,-0.766766,56.168460,-13.076982,-19.531548,75.928893
21.440000,-1.022660,-0.769360,56.076905,-12.634470,-17.288472,74.662394
21.441000,-1.023728,-0.770428,56.031128,-13.748379,-20.965896,74.357214
21.442000,-1.038071,-0.785229,53.894865,-13.321126,-22.369726,74.189364
21.443000,-1.048753,-0.788281,51.697566,-9.521630,-23.605707,74.128328
21.444000,-1.046921,-0.783398,49.622339,-9.369039,-22.842756,75.837339
21.445000,-1.051499,-0.791638,46.662089,-9.964141,-21.103227,77.149615
21.446000,-1.060807,-0.799115,48.477913,-7.736324,-20.996414,77.851530
21.447000,-1.065385,-0.797284,46.204318,-10.284581,-21.683070,74.341955
21.448000,-1.084001,-0.807965,44.480049,-11.276417,-22.095064,76.050965
21.449000,-1.090257,-0.814832,46.204318,-9.018082,-22.659648,77.302205
21.450000,-1.073472,-0.807813,46.829938,-9.124895,-25.818265,74.860761
21.451000,-1.079118,-0.813153,42.923629,-8.758679,-24.429694,72.129397
21.452000,-1.077287,-0.812696,38.162814,-8.667124,-22.140841,71.931029
21.453000,-1.061265,-0.805371,35.126268,-9.567407,-23.620966,68.833448
21.454000,-1.072557,-0.812238,29.724575,-11.062791,-25.497826,70.283055
21.455000,-1.092546,-0.815137,28.870069,-9.536889,-26.047150,71.229114
21.456000,-1.071336,-0.809491,28.610666,-12.252995,-24.856947,70.923934
21.457000,-1.082170,-0.814374,26.382849,-14.953841,-24.490730,71.702144
21.458000,-1.101091,-0.816663,27.374685,-13.824674,-24.063478,73.685817
21.459000,-1.082780,-0.812085,28.885328,-12.283513,-26.031891,72.739757
21.460000,-1.081254,-0.811322,25.772488,-12.588693,-27.145800,72.144656
21.461000,-1.083848,-0.810559,24.139773,-10.269322,-25.635157,74.814984
21.462000,-1.087816,-0.808576,24.689097,-10.376135,-25.375753,75.989929
21.463000,-1.087510,-0.814374,24.200809,-14.801251,-25.131609,76.997024
21.464000,-1.103075,-0.823529,25.803006,-14.373999,-23.270008,76.844434
21.465000,-1.091173,-0.812085,26.657511,-15.899901,-21.072709,73.807889
21.466000,-1.086137,-0.810407,22.507057,-20.965896,-24.582284,70.756085
21.467000,-1.087358,-0.809186,22.644388,-20.386053,-27.359426,72.236210
21.468000,-1.070420,-0.795148,22.415503,-17.547875,-29.144732,71.046006
21.469000,-1.073014,-0.798199,21.606775,-18.829633,-28.030823,68.909743
21.470000,-1.083543,-0.807965,23.620966,-18.005646,-24.750134,70.084688
21.471000,-1.085679,-0.802930,23.376822,-16.693370,-23.315785,70.786603
21.472000,-1.086290,-0.799268,20.187686,-16.159304,-23.697261,69.336995
21.473000,-1.092546,-0.801251,22.873274,-12.527657,-24.277104,71.931029
21.474000,-1.076219,-0.794842,24.322881,-10.467689,-26.871138,73.273823
21.475000,-1.073777,-0.788586,21.942473,-10.284581,-29.175250,72.159915
21.476000,-1.083848,-0.790112,19.134813,-8.773938,-27.756161,74.479286
21.477000,-1.086748,-0.786450,20.370794,-7.232776,-22.949569,76.310369
21.478000,-1.070878,-0.775158,21.774624,-7.232776,-23.605707,73.975738
21.479000,-1.077745,-0.779278,23.056382,-7.034409,-21.057450,74.662394
21.480000,-1.064317,-0.775006,24.185550,-5.966278,-21.759365,74.052033
21.481000,-1.053941,-0.768597,25.360494,-8.346685,-23.651484,69.596399
21.482000,-1.056687,-0.767681,27.130541,-8.789197,-25.452049,69.672694
21.483000,-1.061112,-0.763867,28.244450,-4.562448,-22.400244,71.030747
21.484000,-1.051499,-0.756847,29.510948,-5.706874,-23.132677,70.664530
21.485000,-1.056382,-0.758068,31.525139,-7.278553,-22.064546,73.350118
21.486000,-1.047990,-0.755322,33.539330,-4.623484,-19.012741,72.999161
21.487000,-1.039750,-0.748913,30.655375,-3.524834,-16.861219,71.076524
21.488000,-1.041733,-0.747692,28.107118,-5.355917,-14.862287,73.975738
21.489000,-1.047379,-0.747997,30.670634,-3.738460,-11.749447,77.210651
21.490000,-1.036240,-0.747082,31.204700,-4.501411,-11.474784,78.171969
21.491000,-1.044327,-0.744182,28.564889,-4.577707,-14.114595,77.241169
21.492000,-1.043259,-0.740368,29.007401,-3.006027,-13.351644,77.988861
21.493000,-1.022202,-0.728771,29.678798,-3.219654,-13.794156,74.006256
21.494000,-1.018692,-0.724956,27.283131,-6.988632,-14.999619,72.526131
21.495000,-1.017319,-0.719005,28.763256,-7.003891,-12.680247,75.410086
21.496000,-1.008927,-0.712444,28.717479,-5.279622,-12.481880,76.462959
21.497000,-1.016403,-0.713054,29.892424,-5.600061,-11.520562,78.065156
21.498000,-1.018845,-0.710918,29.922942,-5.981537,-10.452430,78.385595
21.499000,-1.012131,-0.701457,28.046082,-5.615320,-9.338521,80.659190
21.500000,-1.011368,-0.696422,26.138705,-6.286717,-11.413748,81.269551
21.501000,-1.003433,-0.692149,30.395972,-4.562448,-8.804456,79.255360
21.502000,-0.990921,-0.683146,34.439612,-2.243076,-9.567407,77.744717
21.503000,-0.988174,-0.681315,36.179141,-4.058900,-13.336385,77.286946
21.504000,-0.995499,-0.680858,36.804761,-4.806592,-11.306935,82.108797
21.505000,-0.989242,-0.674144,37.521935,-4.654002,-10.345617,83.360037
21.506000,-0.988174,-0.672770,34.927901,-7.904173,-11.276417,82.719158
21.507000,-0.997024,-0.669871,37.674525,-6.927596,-8.850233,82.780194
21.508000,-0.981003,-0.660716,41.199359,-5.676356,-6.363012,82.887007
21.509000,-0.980087,-0.654765,40.314336,-6.790265,-6.057832,81.605249
21.510000,-0.981003,-0.659342,40.878920,-2.731365,-2.578775,85.877775
21.511000,-0.970016,-0.651865,42.587930,-1.663233,-1.785306,88.731212
21.512000,-0.967117,-0.646372,41.809720,-5.127031,-4.440375,88.136110
21.513000,-0.976425,-0.653391,43.228809,-5.600061,-5.493248,91.371023
21.514000,-0.970779,-0.647593,44.296941,-3.311208,-9.842069,94.010834
21.515000,-0.967269,-0.641032,41.000992,-2.700847,-13.336385,94.438087
21.516000,-0.965896,-0.643320,38.040742,-2.426184,-10.650797,93.980316
21.517000,-0.953536,-0.640269,41.809720,0.366217,-7.904173,95.704585
21.518000,-0.950790,-0.637675,43.457694,0.167849,-9.674220,93.690394
21.519000,-0.960861,-0.637827,44.480049,-0.701915,-8.911269,95.872435
21.520000,-0.947433,-0.634623,46.936751,2.777142,-7.461662,95.918212
21.521000,-0.936446,-0.631876,45.517662,1.403830,-9.842069,98.863203
21.522000,-0.947738,-0.634470,45.838102,-1.083391,-11.673152,101.533532
21.523000,-0.943923,-0.630350,48.737316,1.571679,-8.926528,101.716640
21.524000,-0.932784,-0.623941,51.651789,2.761883,-7.690547,101.823453
21.525000,-0.936904,-0.629282,53.513390,1.342794,-8.957046,101.426719
21.526000,-0.934768,-0.625925,53.650721,1.892119,-8.926528,101.762417
21.527000,-0.927596,-0.619669,53.467613,2.227817,-10.437171,101.457237
21.528000,-0.927291,-0.617685,54.032197,2.594034,-12.634470,100.190738
21.529000,-0.919203,-0.609445,54.917220,4.486152,-12.207218,100.938430
21.530000,-0.903639,-0.599069,58.030060,3.326467,-10.742351,99.244678
21.531000,-0.914626,-0.602884,58.304723,3.631647,-10.238804,100.068666
21.532000,-0.919814,-0.605020,58.854047,4.486152,-7.476921,102.647440
21.533000,-0.908980,-0.594949,59.967956,5.004959,-7.309071,103.150988
21.534000,-0.917067,-0.601968,57.343404,4.516670,-7.629511,105.226215
21.535000,-0.926528,-0.600290,58.548867,7.843137,-8.361944,108.140688
21.536000,-0.911421,-0.588846,58.091096,8.773938,-8.285649,106.492714
21.537000,-0.905470,-0.586557,59.967956,7.492180,-7.461662,105.836576
21.538000,-0.899977,-0.586709,61.768521,5.783169,-6.134127,107.576104
21.539000,-0.884871,-0.582742,64.316777,4.776074,-6.073091,106.569009
21.540000,-0.884565,-0.585489,66.666667,5.035477,-8.651865,106.172274
21.541000,-0.886397,-0.585183,68.390936,5.737392,-5.477989,108.445869
21.542000,-0.873579,-0.578317,72.648203,6.057832,-2.883955,107.286183
21.543000,-0.880293,-0.579995,71.641108,4.562448,-4.226749,106.767376
21.544000,-0.887922,-0.582742,74.372473,5.661097,-5.523766,109.361410
21.545000,-0.877852,-0.571450,76.432441,5.706874,-5.722133,110.368505
21.546000,-0.878004,-0.569467,74.448768,3.082322,-12.466621,107.789731
21.547000,-0.883955,-0.573892,73.945220,4.638743,-14.648661,109.330892
21.548000,-0.867781,-0.567025,76.401923,7.171740,-14.312963,108.598459
21.549000,-0.864729,-0.566567,73.167010,7.812619,-14.801251,106.507973
21.550000,-0.865949,-0.568246,72.358282,8.621347,-10.757610,107.820249
21.551000,-0.855573,-0.562448,75.089647,8.270390,-11.154345,108.918898
21.552000,-0.851606,-0.563210,74.784466,6.149386,-11.093309,109.803922
21.553000,-0.852369,-0.568399,76.112001,5.935760,-7.827878,110.780499
21.554000,-0.840772,-0.563363,77.790494,6.897078,-11.383230,112.748913
21.555000,-0.833600,-0.559396,77.027543,4.318303,-14.648661,111.635004
21.556000,-0.838636,-0.562600,75.135424,4.638743,-12.573434,113.435569
21.557000,-0.823072,-0.555886,76.707103,9.674220,-8.834974,115.892271
21.558000,-0.812085,-0.553445,76.249332,10.147250,-11.764706,111.589227
21.559000,-0.825818,-0.557412,75.028611,10.543984,-10.772869,109.544518
21.560000,-0.812238,-0.550698,77.241169,12.756542,-11.291676,108.766308
21.561000,-0.798199,-0.547646,81.254292,10.086213,-11.154345,106.981003
21.562000,-0.802930,-0.547799,84.428168,9.475853,-10.452430,107.789731
21.563000,-0.809644,-0.544442,86.015106,9.674220,-9.063859,108.949416
21.564000,-0.814679,-0.543221,86.289769,9.597925,-7.232776,107.362478
21.565000,-0.830701,-0.550240,88.761730,10.223545,-5.218585,107.560845
21.566000,-0.836194,-0.548714,92.484932,10.650797,-6.607156,105.882353
21.567000,-0.820935,-0.542153,92.393378,10.833906,-9.994659,104.966812
21.568000,-0.823072,-0.545205,91.294728,11.779965,-11.978332,104.859998
21.569000,-0.814679,-0.540932,92.103456,13.580529,-8.789197,106.004425
21.570000,-0.796979,-0.532082,92.698558,12.756542,-7.309071,104.203861
21.571000,-0.801709,-0.540627,91.950866,12.161440,-5.691615,104.432746
21.572000,-0.800946,-0.540932,93.186847,14.496071,-3.662165,102.449073
21.573000,-0.792401,-0.534371,97.322042,12.283513,-2.334630,98.649577
21.574000,-0.800641,-0.540627,98.893721,10.803388,-2.578775,98.939498
21.575000,-0.796216,-0.542458,98.817426,10.315099,-5.905241,100.267033
21.576000,-0.793011,-0.540322,98.588540,8.911269,-6.866560,101.838712
21.577000,-0.797894,-0.542458,101.075761,6.958114,-4.074159,102.281224
21.578000,-0.806287,-0.546426,103.334096,7.934691,-4.165713,102.677958
21.579000,-0.794995,-0.538796,105.287251,7.766842,-3.158618,100.465400
21.580000,-0.795911,-0.535286,106.569009,7.888914,-2.838178,100.907912
21.581000,-0.781872,-0.533150,114.564736,11.200122,3.158618,103.150988
21.582000,-0.751507,-0.521401,120.469978,11.322194,9.582666,103.639277
21.583000,-0.742351,-0.519875,123.064012,10.605020,12.344549,105.210956
21.584000,-0.742657,-0.522011,128.252079,12.832837,20.584421,109.544518
21.585000,-0.714122,-0.506752,133.470665,12.268254,23.926146,111.970703
21.586000,-0.697795,-0.499275,134.233616,11.886778,21.774624,112.092775
21.587000,-0.684367,-0.487831,135.164416,14.068818,19.714656,109.514000
21.588000,-0.651865,-0.474098,138.735027,15.121691,24.231327,110.322728
21.589000,-0.616617,-0.463416,137.865263,14.770733,28.305486,108.659495
21.590000,-0.601358,-0.453498,139.360647,16.693370,31.616693,109.178302
21.591000,-0.576791,-0.433814,141.100175,17.273213,32.715343,110.261692
21.592000,-0.552071,-0.410163,139.940490,13.962005,29.877165,111.055161
21.593000,-0.530251,-0.397040,135.606928,12.649729,25.162127,110.139620
21.594000,-0.491188,-0.380407,130.769818,14.465553,21.698329,108.934157
21.595000,-0.461433,-0.364996,123.643854,14.328222,14.145113,107.392996
21.596000,-0.456855,-0.356909,118.928817,11.963073,9.811551,108.415351
21.597000,-0.445869,-0.343023,119.722286,13.092241,7.263294,107.469291
21.598000,-0.438392,-0.328679,115.877012,10.971237,4.043641,108.934157
21.599000,-0.444038,-0.326238,113.557641,8.438239,2.044709,107.255665
21.600000,-0.440070,-0.317235,111.161975,9.552148,1.159686,108.155947
21.601000,-0.420996,-0.306249,105.897612,6.973373,-2.304112,104.539559
21.602000,-0.406195,-0.297704,107.499809,5.676356,-1.464866,103.242542
21.603000,-0.382086,-0.279393,105.760281,9.033341,-0.274662,102.861067
21.604000,-0.359808,-0.261692,106.187533,7.919432,-0.640879,100.755322
21.605000,-0.362249,-0.265660,106.721599,6.225681,-0.045777,100.816358
21.606000,-0.373846,-0.262913,109.178302,8.163577,0.061036,102.449073
21.607000,-0.367742,-0.252384,108.369574,6.881819,-3.036545,98.558022
21.608000,-0.377661,-0.251774,105.577173,7.904173,-3.936828,99.214160
21.609000,-0.367590,-0.235904,108.522164,10.040436,-3.738460,101.625086
21.610000,-0.335546,-0.215152,108.720531,9.201190,-1.083391,102.342260
21.611000,-0.322118,-0.203708,108.949416,9.185931,0.793469,101.625086
21.612000,-0.308995,-0.190280,112.123293,13.260090,5.416953,102.540627
21.613000,-0.285344,-0.168612,116.304265,16.037232,8.468757,102.525368
21.614000,-0.273594,-0.159915,119.752804,15.823606,11.322194,101.884489
21.615000,-0.255283,-0.145418,121.049821,18.966964,15.777829,103.135729
21.616000,-0.228580,-0.122683,122.758831,20.172427,20.721752,103.028916
21.617000,-0.240940,-0.125734,120.912490,20.279240,23.208972,102.540627
21.618000,-0.258946,-0.132906,123.018235,22.140841,28.152895,107.637140
21.619000,-0.250553,-0.123445,124.071107,25.329976,25.741970,108.064393
21.620000,-0.246128,-0.117494,124.376287,24.399176,21.972992,107.270924
21.621000,-0.257115,-0.123293,123.949035,26.459144,19.317922,107.545586
21.622000,-0.257420,-0.129702,122.697795,24.063478,18.509194,105.073625
21.623000,-0.276493,-0.156710,119.783322,20.996414,16.968032,100.038148
21.624000,-0.307164,-0.178988,118.410010,21.530480,18.509194,99.427787
21.625000,-0.318456,-0.189059,117.891203,22.613870,16.098268,96.910048
21.626000,-0.337835,-0.202182,113.725490,19.821469,11.734188,93.919280
21.627000,-0.370489,-0.220340,109.422446,20.401312,6.897078,94.148165
21.628000,-0.380560,-0.223545,106.660563,20.523384,2.700847,92.088197
21.629000,-0.391394,-0.229038,99.382010,18.356603,-1.419089,89.845121
21.630000,-0.420081,-0.248264,97.871366,17.700465,0.091554,89.158465
21.631000,-0.438392,-0.266423,97.871366,18.707561,1.510643,89.662013
21.632000,-0.451667,-0.288396,94.804303,17.029068,-0.671397,88.105592
21.633000,-0.465858,-0.304417,95.719844,19.806210,1.968414,90.745403
21.634000,-0.437934,-0.297246,95.963989,23.819333,2.594034,88.883803
21.635000,-0.407416,-0.291905,93.934539,23.102159,1.602197,86.915389
21.636000,-0.385901,-0.287938,91.020066,26.520180,2.471962,88.090333
21.637000,-0.340887,-0.269017,92.195010,27.634089,3.692683,88.349737
21.638000,-0.286870,-0.251469,91.020066,26.123445,4.943923,88.181888
21.639000,-0.249180,-0.247807,91.523613,23.956664,7.751583,90.180819
21.640000,-0.207370,-0.231327,95.002670,24.155032,8.056764,90.547036
21.641000,-0.167544,-0.218967,94.438087,23.498894,5.813687,88.044556
21.642000,-0.148165,-0.209659,96.009766,25.497826,7.492180,89.051652
21.643000,-0.108034,-0.195621,96.711681,27.405203,8.911269,88.731212
21.644000,-0.076448,-0.182193,94.407568,27.786679,10.910201,87.510491
21.645000,-0.085756,-0.183719,94.087129,28.366522,10.025177,87.067979
21.646000,-0.083772,-0.193179,96.375982,30.960555,9.063859,85.481041
21.647000,-0.090486,-0.200504,94.285496,30.350195,6.393530,85.999847
21.648000,-0.118563,-0.213931,92.637522,29.495689,7.034409,85.526818
21.649000,-0.138705,-0.224613,91.477836,34.607462,9.277485,84.931716
21.650000,-0.161593,-0.222477,89.356832,34.851606,8.636606,83.802548
21.651000,-0.199893,-0.237583,85.755703,32.440681,7.598993,82.764935
21.652000,-0.244297,-0.257725,84.885939,30.350195,8.438239,84.367132
21.653000,-0.287022,-0.278477,84.626535,28.717479,6.729229,80.949111
21.654000,-0.375219,-0.319371,81.788357,28.000305,3.158618,79.713130
21.655000,-0.464637,-0.353857,78.141451,28.946365,3.067063,80.231937
21.656000,-0.518807,-0.374762,75.349050,31.006332,2.746624,78.904402
21.657000,-0.575113,-0.397498,75.379568,28.564889,4.196231,80.567636
21.658000,-0.606699,-0.414282,77.164874,30.869001,5.615320,83.115892
21.659000,-0.630808,-0.422370,77.882048,32.593271,3.768978,81.467918
21.660000,-0.665141,-0.437476,74.067292,32.806897,2.319371,83.085374
21.661000,-0.702220,-0.448768,73.914702,33.447776,3.097581,83.329519
21.662000,-0.719158,-0.450904,73.807889,34.393835,3.860533,83.604181
21.663000,-0.745251,-0.457618,69.413291,32.776379,3.372244,80.796521
21.664000,-0.763256,-0.457160,71.686885,33.844511,7.431144,83.299001
21.665000,-0.747539,-0.443885,73.319600,33.539330,7.949950,83.680476
21.666000,-0.735943,-0.438544,69.810025,31.448844,7.309071,84.504463
21.667000,-0.731670,-0.442664,68.101015,34.119173,7.568475,85.786221
21.668000,-0.713207,-0.443427,67.643244,36.987869,6.073091,86.640726
21.669000,-0.706493,-0.452277,65.613794,33.356222,2.563516,86.396582
21.670000,-0.702831,-0.464179,63.187610,32.822156,2.792401,86.823835
21.671000,-0.689555,-0.458076,61.539635,31.982910,2.639811,87.418936
